"PointID","x","y","Temperature","Heat_Flux"
0,1.000000000000000e+01,1.000000000000000e-10,3.418059876199353e+02,-2.335202384576401e+00,
1,1.000006168376073e+01,7.853658754898123e-03,3.418054411389512e+02,-2.335513158988852e+00,
2,1.000024671982021e+01,1.570537963701579e-02,3.418044716968193e+02,-2.336125312292707e+00,
3,1.000055506252358e+01,2.355322545171365e-02,3.418030802270526e+02,-2.337034893726475e+00,
4,1.000098663579189e+01,3.139525986046725e-02,3.418012691427911e+02,-2.338237898545761e+00,
5,1.000154133314089e+01,3.922954795862962e-02,3.417990425649278e+02,-2.339731229841476e+00,
6,1.000221901770731e+01,4.705415675283998e-02,3.417964063764196e+02,-2.341513343804433e+00,
7,1.000301952228262e+01,5.486715563796100e-02,3.417933679990123e+02,-2.343583518750650e+00,
8,1.000394264935429e+01,6.266661687342666e-02,3.417899359861832e+02,-2.345940307961995e+00,
9,1.000498817115454e+01,7.045061605888349e-02,3.417861196476228e+02,-2.348580679378005e+00,
10,1.000615582971651e+01,7.821723260900737e-02,3.417819287874744e+02,-2.351499696720006e+00,
11,1.000744533693791e+01,8.596455022737950e-02,3.417773735677832e+02,-2.354690221825591e+00,
12,1.000885637465215e+01,9.369065737930359e-02,3.417724645329118e+02,-2.358143108803832e+00,
13,1.001038859470676e+01,1.013936477634486e-01,3.417672127727750e+02,-2.361847710124980e+00,
14,1.001204161904939e+01,1.090716207822001e-01,3.417616301713412e+02,-2.365792730835784e+00,
15,1.001381503982100e+01,1.167226820106041e-01,3.417557296338055e+02,-2.369966545381925e+00,
16,1.001570841945657e+01,1.243449436637884e-01,3.417495252861660e+02,-2.374357012979378e+00,
17,1.001772129079300e+01,1.319365250627447e-01,3.417430327463638e+02,-2.378953408685132e+00,
18,1.001985315718441e+01,1.394955530983587e-01,3.417362691581448e+02,-2.383746967299282e+00,
19,1.002210349262465e+01,1.470201626935712e-01,3.417292529027546e+02,-2.388729492641005e+00,
20,1.002447174187714e+01,1.545084972635583e-01,3.417220032070625e+02,-2.393892078116304e+00,
21,1.002695732061182e+01,1.619587091738155e-01,3.417145398096399e+02,-2.399224151580998e+00,
22,1.002955961554931e+01,1.693689601960345e-01,3.417068828074508e+02,-2.404713227439053e+00,
23,1.003227798461228e+01,1.767374219616578e-01,3.416990527147325e+02,-2.410345938960423e+00,
24,1.003511175708385e+01,1.840622764130020e-01,3.416910705652519e+02,0.000000000000000e+00,
25,1.003806023377306e+01,1.913417162518359e-01,3.416829581009226e+02,0.000000000000000e+00,
26,1.004112268718740e+01,1.985739453853042e-01,3.416747379029986e+02,-2.427965457710379e+00,
27,1.004429836171232e+01,2.057571793690869e-01,3.416664334384783e+02,-2.434035175931922e+00,
28,1.004758647379765e+01,2.128896458476839e-01,3.416580689564406e+02,-2.440183793724204e+00,
29,1.005098621215093e+01,2.199695849917176e-01,3.416496692284344e+02,-2.446400330016768e+00,
30,1.005449673793760e+01,2.269952499321439e-01,3.416412592923102e+02,-2.452673236776558e+00,
31,1.005811718498794e+01,2.339649071912665e-01,3.416328642822302e+02,-2.458990425191828e+00,
32,1.006184666001083e+01,2.408768371104465e-01,3.416245093254917e+02,-2.465339642195608e+00,
33,1.006568424281410e+01,2.477293342744021e-01,3.416162194294943e+02,-2.471708530036218e+00,
34,1.006962898653162e+01,2.545207079319946e-01,3.416080193418371e+02,-2.478084231490601e+00,
35,1.007367991785692e+01,2.612492824133960e-01,3.415999334440099e+02,-2.484452985790957e+00,
36,1.007783603728329e+01,2.679133975435353e-01,3.415919857407762e+02,-2.490800022713942e+00,
37,1.008209631935045e+01,2.745114090517217e-01,3.415841999759528e+02,-2.497110145022679e+00,
38,1.008645971289757e+01,2.810416889773443e-01,3.415765997936213e+02,-2.503368193475746e+00,
39,1.009092514132256e+01,2.875026260715464e-01,3.415692089050507e+02,-2.509559617696889e+00,
40,1.009549150284779e+01,2.938926261947776e-01,3.415620511998443e+02,-2.515671099925340e+00,
41,1.010015767079188e+01,3.002101127101234e-01,3.415551507103173e+02,-2.521690511299971e+00,
42,1.010492249384770e+01,3.064535268723173e-01,3.415485314335183e+02,-2.527605896265979e+00,
43,1.010978479636647e+01,3.126213282123371e-01,3.415422171678452e+02,-2.533404741840103e+00,
44,1.011474337864780e+01,3.187119949174936e-01,3.415362314741688e+02,-2.539074265050776e+00,
45,1.011979701723570e+01,3.247240242069142e-01,3.415305977042388e+02,-2.544602036721606e+00,
46,1.012494446522048e+01,3.306559327023320e-01,3.415253389910643e+02,-2.549975764764617e+00,
47,1.013018445254636e+01,3.365062567940871e-01,3.415204782667814e+02,-2.555184303341946e+00,
48,1.013551568632489e+01,3.422735530022507e-01,3.415160381166218e+02,-2.560216669535508e+00,
49,1.014093685115390e+01,3.479563983327816e-01,3.415120406442882e+02,-2.565061779753571e+00,
50,1.014644660944208e+01,3.535533906286291e-01,3.415085073749971e+02,-2.569708452871839e+00,
51,1.015204360173903e+01,3.590631489156941e-01,3.415054591742752e+02,-2.574144802922553e+00,
52,1.015772644707065e+01,3.644843137435640e-01,3.415029162973907e+02,-2.578358739385314e+00,
53,1.016349374327988e+01,3.698155475209365e-01,3.415008984866936e+02,-2.582338527244808e+00,
54,1.016934406737268e+01,3.750555348456501e-01,3.414994250409330e+02,-2.586073073900295e+00,
55,1.017527597586913e+01,3.802029828292406e-01,3.414985148160793e+02,-2.589551109632359e+00,
56,1.018128800515956e+01,3.852566214159412e-01,3.414981863253655e+02,-2.592761674793033e+00,
57,1.018737867186571e+01,3.902152036960503e-01,3.414984578671400e+02,-2.595694687952698e+00,
58,1.019354647320670e+01,3.950775062135873e-01,3.414993476029501e+02,-2.598341101726561e+00,
59,1.019978988736984e+01,3.998423292681625e-01,3.415008735862007e+02,-2.600693217658990e+00,
60,1.020610737388612e+01,4.045084972109851e-01,3.415030536896635e+02,-2.602744337737395e+00,
61,1.021249737401027e+01,4.090748587349369e-01,3.415059054989771e+02,-2.604488709757285e+00,
62,1.021895831110536e+01,4.135402871586401e-01,3.415094461695465e+02,-2.605921926466381e+00,
63,1.022548859103186e+01,4.179036807044491e-01,3.415136921484677e+02,-2.607040421164728e+00,
64,1.023208660254090e+01,4.221639627702973e-01,3.415186588010660e+02,-2.607840066364117e+00,
65,1.023875071767187e+01,4.263200821953336e-01,3.415243601334181e+02,-2.608315014955178e+00,
66,1.024547929215408e+01,4.303710135192792e-01,3.415308087690944e+02,-2.608457858361373e+00,
67,1.025227066581246e+01,4.343157572354457e-01,3.415380161471003e+02,-2.608260537724305e+00,
68,1.025912316297718e+01,4.381533400373479e-01,3.415459928111803e+02,-2.607715325770104e+00,
69,1.026603509289711e+01,4.418828150588525e-01,3.415547486692713e+02,-2.606815683692542e+00,
70,1.027300475015696e+01,4.455032621078037e-01,3.415642931127556e+02,-2.605556319114243e+00,
71,1.028003041509809e+01,4.490137878930660e-01,3.415746349935910e+02,-2.603932134055363e+00,
72,1.028711035424280e+01,4.524135262449316e-01,3.415857826509086e+02,-2.601938099520235e+00,
73,1.029424282072205e+01,4.557016383288335e-01,3.415977440017392e+02,-2.599569601372441e+00,
74,1.030142605470647e+01,4.588773128523164e-01,3.416105266456186e+02,-2.596823138409245e+00,
75,1.030865828384055e+01,4.619397662652104e-01,3.416241378710112e+02,-2.593696124432185e+00,
76,1.031593772367998e+01,4.648882429529607e-01,3.416385846082109e+02,-2.590186533795353e+00,
77,1.032326257813189e+01,4.677220154230636e-01,3.416538733966664e+02,-2.586293444312455e+00,
78,1.033063103989805e+01,4.704403844845650e-01,3.416700102607897e+02,-2.582016813127716e+00,
79,1.033804129092079e+01,4.730426794205749e-01,3.416870005222705e+02,-2.577356916607922e+00,
80,1.034549150283155e+01,4.755282581537572e-01,3.417048486310509e+02,-2.572314190806808e+00,
81,1.035297983740201e+01,4.778965074047519e-01,3.417235580243836e+02,-2.566889280346402e+00,
82,1.036050444699767e+01,4.801468428434934e-01,3.417431309909618e+02,-2.561083283967065e+00,
83,1.036806347503371e+01,4.822787092333848e-01,3.417635684758665e+02,-2.554897307993343e+00,
84,1.037565505643307e+01,4.842915805682946e-01,3.417848698823998e+02,-2.548331843039828e+00,
85,1.038327731808663e+01,4.861849602023400e-01,3.418070329474599e+02,-2.541385922942600e+00,
86,1.039092837931539e+01,4.879583809724277e-01,3.418300538319775e+02,-2.534057763651545e+00,
87,1.039860635233447e+01,4.896114053135192e-01,3.418539273228837e+02,-2.526345709349499e+00,
88,1.040630934271893e+01,4.911436253665930e-01,3.418786470040214e+02,-2.518248027362538e+00,
89,1.041403544987113e+01,4.925546630792782e-01,3.419042054786059e+02,-2.509763775789954e+00,
90,1.042178276748976e+01,4.938441702991332e-01,3.419305945133260e+02,-2.500893026355374e+00,
91,1.042954938404012e+01,4.950118288595469e-01,3.419578050802803e+02,-2.491636584922801e+00,
92,1.043733338322578e+01,4.960573506582416e-01,3.419858273475408e+02,-2.481995620772641e+00,
93,1.044513284446144e+01,4.969804777283580e-01,3.420146506650834e+02,-2.471971272774961e+00,
94,1.045294584334672e+01,4.977809823021046e-01,3.420442635990884e+02,-2.461563883928318e+00,
95,1.046077045214106e+01,4.984586668669563e-01,3.420746541576502e+02,-2.450773407601618e+00,
96,1.046860474023934e+01,4.990133642143869e-01,3.421058101751072e+02,-2.439601070993607e+00,
97,1.047644677464818e+01,4.994449374811263e-01,3.421377196227135e+02,-2.428050520469858e+00,
98,1.048429462046293e+01,4.997532801829286e-01,3.421703707061399e+02,-2.416128762534764e+00,
99,1.049214634134509e+01,4.999383162408460e-01,3.422037515895624e+02,-2.403845281971430e+00,
100,1.050000000000000e+01,5.000000000000000e-01,3.422378498461277e+02,-2.391209029282047e+00,
101,1.050785365865491e+01,4.999383162408460e-01,3.422726520916461e+02,-2.378227620594414e+00,
102,1.051570537953707e+01,4.997532801829286e-01,3.423081438636821e+02,-2.364907346680701e+00,
103,1.052355322535182e+01,4.994449374811263e-01,3.423443097217939e+02,-2.351254160128662e+00,
104,1.053139525976066e+01,4.990133642143870e-01,3.423811334121993e+02,-2.337274038136441e+00,
105,1.053922954785894e+01,4.984586668669563e-01,3.424185980827421e+02,-2.322974149685758e+00,
106,1.054705415665328e+01,4.977809823021047e-01,3.424566863773824e+02,-2.308363015869529e+00,
107,1.055486715553856e+01,4.969804777283580e-01,3.424953804132559e+02,-2.293450574571049e+00,
108,1.056266661677422e+01,4.960573506582416e-01,3.425346616201851e+02,-2.278247340706800e+00,
109,1.057045061595988e+01,4.950118288595469e-01,3.425745105696300e+02,-2.262763768371138e+00,
110,1.057821723251024e+01,4.938441702991332e-01,3.426149068767259e+02,-2.247009903750625e+00,
111,1.058596455012887e+01,4.925546630792781e-01,3.426558292207717e+02,-2.230995774622815e+00,
112,1.059369065728107e+01,4.911436253665929e-01,3.426972554194168e+02,-2.214732017700249e+00,
113,1.060139364766553e+01,4.896114053135192e-01,3.427391624495289e+02,-2.198229631896913e+00,
114,1.060907162068461e+01,4.879583809724277e-01,3.427815264753279e+02,-2.181499930385867e+00,
115,1.061672268191337e+01,4.861849602023400e-01,3.428243228948253e+02,-2.164554792160426e+00,
116,1.062434494356693e+01,4.842915805682946e-01,3.428675263735595e+02,-2.147407440907148e+00,
117,1.063193652496629e+01,4.822787092333849e-01,3.429111107160167e+02,-2.130072076946735e+00,
118,1.063949555300233e+01,4.801468428434933e-01,3.429550486086144e+02,-2.112562462895846e+00,
119,1.064702016259799e+01,4.778965074047518e-01,3.429993114381006e+02,-2.094890712347625e+00,
120,1.065450849716845e+01,4.755282581537571e-01,3.430438693602181e+02,-2.077067369192481e+00,
121,1.066195870907921e+01,4.730426794205749e-01,3.430886916084433e+02,-2.059102505906612e+00,
122,1.066936896010195e+01,4.704403844845649e-01,3.431337468898982e+02,-2.041007156582021e+00,
123,1.067673742186811e+01,4.677220154230636e-01,3.431790036746379e+02,-2.022793982167571e+00,
124,1.068406227632002e+01,4.648882429529607e-01,3.432244302956381e+02,-2.004476748046384e+00,
125,1.069134171615945e+01,4.619397662652105e-01,3.432699949583085e+02,-1.986069411609590e+00,
126,1.069857394529353e+01,4.588773128523164e-01,3.433156658111105e+02,-1.967585870655752e+00,
127,1.070575717927795e+01,4.557016383288335e-01,3.433614111126455e+02,-1.949040416431320e+00,
128,1.071288964575720e+01,4.524135262449316e-01,3.434071994273410e+02,-1.930448386348466e+00,
129,1.071996958490191e+01,4.490137878930660e-01,3.434529997513077e+02,-1.911826366054890e+00,
130,1.072699524984304e+01,4.455032621078037e-01,3.434987815472427e+02,-1.893192016422441e+00,
131,1.073396490710289e+01,4.418828150588526e-01,3.435445147234871e+02,-1.874564397004258e+00,
132,1.074087683702282e+01,4.381533400373480e-01,3.435901694748950e+02,-1.855963309612490e+00,
133,1.074772933418754e+01,4.343157572354457e-01,3.436357160740359e+02,-1.837408740919151e+00,
134,1.075452070784592e+01,4.303710135192792e-01,3.436811246609139e+02,-1.818920501084651e+00,
135,1.076124928232813e+01,4.263200821953336e-01,3.437263650392646e+02,-1.800517253968089e+00,
136,1.076791339745910e+01,4.221639627702973e-01,3.437714066052779e+02,-1.782215743958473e+00,
137,1.077451140896814e+01,4.179036807044491e-01,3.438162185343451e+02,-1.764032029782606e+00,
138,1.078104168889464e+01,4.135402871586401e-01,3.438607700045653e+02,-1.745982169181589e+00,
139,1.078750262598973e+01,4.090748587349369e-01,3.439050303621875e+02,-1.728082263707328e+00,
140,1.079389262611388e+01,4.045084972109851e-01,3.439489692311601e+02,-1.710348204560362e+00,
141,1.080021011263016e+01,3.998423292681625e-01,3.439925566122020e+02,-1.692795451062519e+00,
142,1.080645352679330e+01,3.950775062135874e-01,3.440357630027153e+02,-1.675439036975602e+00,
143,1.081262132813429e+01,3.902152036960502e-01,3.440785595367923e+02,-1.658293695482550e+00,
144,1.081871199484044e+01,3.852566214159412e-01,3.441209181223862e+02,-1.641374076341413e+00,
145,1.082472402413087e+01,3.802029828292406e-01,3.441628115475270e+02,-1.624694815330503e+00,
146,1.083065593262732e+01,3.750555348456499e-01,3.442042135466435e+02,-1.608270645584049e+00,
147,1.083650625672012e+01,3.698155475209365e-01,3.442450988044152e+02,-1.592116553910800e+00,
148,1.084227355292935e+01,3.644843137435640e-01,3.442854428519921e+02,-1.576246900098470e+00,
149,1.084795639826097e+01,3.590631489156941e-01,3.443252219942224e+02,-1.560675715700670e+00,
150,1.085355339055792e+01,3.535533906286292e-01,3.443644131717163e+02,-1.545415953157705e+00,
151,1.085906314884610e+01,3.479563983327816e-01,3.444029938639009e+02,-1.530479033488478e+00,
152,1.086448431367511e+01,3.422735530022508e-01,3.444409420806954e+02,-1.515874916737301e+00,
153,1.086981554745364e+01,3.365062567940871e-01,3.444782364129798e+02,-1.501611896896627e+00,
154,1.087505553477952e+01,3.306559327023317e-01,3.445148561777268e+02,-1.487697086747211e+00,
155,1.088020298276430e+01,3.247240242069142e-01,3.445507815839615e+02,-1.474136810270961e+00,
156,1.088525662135220e+01,3.187119949174936e-01,3.445859938599648e+02,-1.460936293864177e+00,
157,1.089021520363353e+01,3.126213282123372e-01,3.446204754240223e+02,-1.448100646673324e+00,
158,1.089507750615230e+01,3.064535268723173e-01,3.446542099177572e+02,-1.435634324249501e+00,
159,1.089984232920812e+01,3.002101127101233e-01,3.446871821908935e+02,-1.423539611631241e+00,
160,1.090450849715221e+01,2.938926261947776e-01,3.447193785231283e+02,-1.411817991892539e+00,
161,1.090907485867744e+01,2.875026260715464e-01,3.447507868418974e+02,-1.400470773132522e+00,
162,1.091354028710243e+01,2.810416889773442e-01,3.447813968667492e+02,-1.389499274239129e+00,
163,1.091790368064955e+01,2.745114090517217e-01,3.448112001818848e+02,-1.378905699931554e+00,
164,1.092216396271671e+01,2.679133975435352e-01,3.448401900744591e+02,-1.368691457309930e+00,
165,1.092632008214308e+01,2.612492824133959e-01,3.448683614490062e+02,-1.358857714734907e+00,
166,1.093037101346838e+01,2.545207079319946e-01,3.448957106982213e+02,-1.349405688979884e+00,
167,1.093431575718590e+01,2.477293342744022e-01,3.449222354629542e+02,-1.340335858824405e+00,
168,1.093815333998917e+01,2.408768371104465e-01,3.449479344190227e+02,-1.331648344312150e+00,
169,1.094188281501206e+01,2.339649071912664e-01,3.449728069902899e+02,-1.323342470904111e+00,
170,1.094550326206240e+01,2.269952499321439e-01,3.449968530452759e+02,-1.315416336160528e+00,
171,1.094901378784907e+01,2.199695849917175e-01,3.450200726158481e+02,-1.307866054571438e+00,
172,1.095241352620235e+01,2.128896458476840e-01,3.450424657532108e+02,-1.300685653092989e+00,
173,1.095570163828768e+01,2.057571793690866e-01,3.450640325314341e+02,-1.293867518220426e+00,
174,1.095887731281260e+01,1.985739453853041e-01,3.450847731385092e+02,-1.287402970915426e+00,
175,1.096193976622694e+01,1.913417162518359e-01,3.451046879854128e+02,-1.281282322895845e+00,
176,1.096488824291615e+01,1.840622764130018e-01,3.451237778645068e+02,-1.275495391779687e+00,
177,1.096772201538772e+01,1.767374219616578e-01,3.451420441092940e+02,-1.270032038178133e+00,
178,1.097044038445069e+01,1.693689601960344e-01,3.451594887149092e+02,-1.264882487203653e+00,
179,1.097304267938818e+01,1.619587091738154e-01,3.451761143633780e+02,-1.260037189851223e+00,
180,1.097552825812286e+01,1.545084972635583e-01,3.451919244367462e+02,-1.255487124003101e+00,
181,1.097789650737535e+01,1.470201626935712e-01,3.452069229626276e+02,-1.251223802395103e+00,
182,1.098014684281559e+01,1.394955530983588e-01,3.452211144957843e+02,-1.247238845720724e+00,
183,1.098227870920700e+01,1.319365250627447e-01,3.452345040167308e+02,-1.243523969266722e+00,
184,1.098429158054343e+01,1.243449436637881e-01,3.452470968447628e+02,-1.240071067454169e+00,
185,1.098618496017900e+01,1.167226820106042e-01,3.452588985594396e+02,-1.236872253867182e+00,
186,1.098795838095061e+01,1.090716207822001e-01,3.452699149302477e+02,-1.233920004107381e+00,
187,1.098961140529324e+01,1.013936477634487e-01,3.452801518452020e+02,-1.231207640274237e+00,
188,1.099114362534785e+01,9.369065737930360e-02,3.452896151524959e+02,-1.228729081595381e+00,
189,1.099255466306209e+01,8.596455022737942e-02,3.452983104530954e+02,-1.226477994769459e+00,
190,1.099384417028349e+01,7.821723260900744e-02,3.453062429884894e+02,-1.224447808704085e+00,
191,1.099501182884546e+01,7.045061605888343e-02,3.453134176175157e+02,-1.222632174412115e+00,
192,1.099605735064571e+01,6.266661687342655e-02,3.453198388133494e+02,-1.221025368777156e+00,
193,1.099698047771738e+01,5.486715563796102e-02,3.453255106275222e+02,-1.219622580090594e+00,
194,1.099778098229269e+01,4.705415675283992e-02,3.453304365741697e+02,-1.218419342074527e+00,
195,1.099845866685911e+01,3.922954795862946e-02,3.453346195330193e+02,-1.217411053857162e+00,
196,1.099901336420811e+01,3.139525986046723e-02,3.453380617530594e+02,-1.216593149711678e+00,
197,1.099944493747642e+01,2.355322545171353e-02,3.453407649354068e+02,-1.215961694327764e+00,
198,1.099975328017979e+01,1.570537963701581e-02,3.453427303102226e+02,-1.215513935679877e+00,
199,1.099993831623927e+01,7.853658754898052e-03,3.453439586260883e+02,-1.215247995593707e+00,
200,1.100000000000000e+01,1.000000000000000e-10,3.453444501130779e+02,-1.215162640874459e+00,
201,1.099993831624239e+01,-7.853658556922213e-03,3.453442044606585e+02,-1.215257177567140e+00,
202,1.099975328018594e+01,-1.570537944111243e-02,3.453432208185664e+02,-1.215531711863182e+00,
203,1.099944493748555e+01,-2.355322525792876e-02,3.453414977711665e+02,-1.215986876585438e+00,
204,1.099901336422016e+01,-3.139525966884592e-02,3.453390333229606e+02,-1.216623514513171e+00,
205,1.099845866687402e+01,-3.922954776921516e-02,3.453358249456666e+02,-1.217442520070922e+00,
206,1.099778098231039e+01,-4.705415656567422e-02,3.453318697165339e+02,-1.218445115234894e+00,
207,1.099698047773779e+01,-5.486715545308397e-02,3.453271645169519e+02,-1.219633531296969e+00,
208,1.099605735066877e+01,-6.266661669087753e-02,3.453217061935949e+02,-1.221011309605822e+00,
209,1.099501182887110e+01,-7.045061587869897e-02,3.453154916546065e+02,-1.222583528114433e+00,
210,1.099384417031165e+01,-7.821723243122332e-02,3.453085178626928e+02,-1.224356587882974e+00,
211,1.099255466309269e+01,-8.596455005202992e-02,3.453007817560074e+02,-1.226337500854894e+00,
212,1.099114362538083e+01,-9.369065720642096e-02,3.452922802068387e+02,-1.228534388266836e+00,
