"PointID","x","y","Temperature","Heat_Flux"
0,0.000000000000000e+00,1.000000000000000e-10,3.307497251489256e+02,-5.859932785233499e+00,
1,6.168376072474002e-05,7.853658754898123e-03,3.307503341215968e+02,-5.859826114135015e+00,
2,2.467198202125154e-04,1.570537963701579e-02,3.307521231764430e+02,-5.859396333541544e+00,
3,5.550625235843376e-04,2.355322545171365e-02,3.307550904680605e+02,-5.858637517359229e+00,
4,9.866357918920654e-04,3.139525986046725e-02,3.307592350542683e+02,-5.857544960754564e+00,
5,1.541333140889611e-03,3.922954795862962e-02,3.307645573229108e+02,-5.856116998092933e+00,
6,2.219017707306148e-03,4.705415675283998e-02,3.307710590838846e+02,-5.854356264941013e+00,
7,3.019522282615483e-03,5.486715563796100e-02,3.307787431183199e+02,-5.852268292610769e+00,
8,3.942649354291727e-03,6.266661687342666e-02,3.307876123710554e+02,-5.849858424081530e+00,
9,4.988171154543197e-03,7.045061605888349e-02,3.307976692188960e+02,-5.847130285461428e+00,
10,6.155829716510242e-03,7.821723260900737e-02,3.308089149535759e+02,-5.844085101515681e+00,
11,7.445336937914715e-03,8.596455022737950e-02,3.308213495075819e+02,-5.840720957208465e+00,
12,8.856374652145227e-03,9.369065737930359e-02,3.308349715207222e+02,-5.837033135612934e+00,
13,1.038859470675962e-02,1.013936477634486e-01,3.308497787007688e+02,-5.833014994487985e+00,
14,1.204161904938661e-02,1.090716207822001e-01,3.308657683877115e+02,-5.828659589164350e+00,
15,1.381503982100457e-02,1.167226820106041e-01,3.308829381128838e+02,-5.823960194582359e+00,
16,1.570841945657442e-02,1.243449436637884e-01,3.309012861546456e+02,-5.818910176679233e+00,
17,1.772129079300239e-02,1.319365250627447e-01,3.309208122396465e+02,-5.813507102452978e+00,
18,1.985315718440578e-02,1.394955530983587e-01,3.309415177169612e+02,-5.807753779824889e+00,
19,2.210349262465222e-02,1.470201626935712e-01,3.309634050201390e+02,-5.801654998524922e+00,
20,2.447174187714457e-02,1.545084972635583e-01,3.309864769019920e+02,-5.795214386084673e+00,
21,2.695732061181683e-02,1.619587091738155e-01,3.310107358350861e+02,-5.788432202684016e+00,
22,2.955961554930886e-02,1.693689601960345e-01,3.310361838443869e+02,-5.781304937949870e+00,
23,3.227798461228393e-02,1.767374219616578e-01,3.310628228135457e+02,-5.773827598775558e+00,
24,3.511175708385172e-02,1.840622764130020e-01,3.310906548916054e+02,0.000000000000000e+00,
25,3.806023377305784e-02,1.913417162518359e-01,3.311196829995902e+02,0.000000000000000e+00,
26,4.112268718739837e-02,1.985739453853042e-01,3.311499111281366e+02,-5.749244500991560e+00,
27,4.429836171231788e-02,2.057571793690869e-01,3.311813444189037e+02,-5.740325540807071e+00,
28,4.758647379764636e-02,2.128896458476839e-01,3.312139889306118e+02,-5.731046359285480e+00,
29,5.098621215092786e-02,2.199695849917176e-01,3.312478511116208e+02,-5.721409418597426e+00,
30,5.449673793759541e-02,2.269952499321439e-01,3.312829373137586e+02,-5.711416109194440e+00,
31,5.811718498794044e-02,2.339649071912665e-01,3.313192534737972e+02,-5.701066866554886e+00,
32,6.184666001082745e-02,2.408768371104465e-01,3.313568048975446e+02,-5.690361814615530e+00,
33,6.568424281410007e-02,2.477293342744021e-01,3.313955960015367e+02,-5.679300537017510e+00,
34,6.962898653162497e-02,2.545207079319946e-01,3.314356300187628e+02,-5.667880946611057e+00,
35,7.367991785691630e-02,2.612492824133960e-01,3.314769088289833e+02,-5.656098362250379e+00,
36,7.783603728328542e-02,2.679133975435353e-01,3.315194330517101e+02,-5.643945414664499e+00,
37,8.209631935045336e-02,2.745114090517217e-01,3.315632024403835e+02,-5.631413436172783e+00,
38,8.645971289756821e-02,2.810416889773443e-01,3.316082163929417e+02,-5.618493626371648e+00,
39,9.092514132256357e-02,2.875026260715464e-01,3.316544744734326e+02,-5.605178489252220e+00,
40,9.549150284779340e-02,2.938926261947776e-01,3.317019767832475e+02,-5.591463028444546e+00,
41,1.001576707918795e-01,3.002101127101234e-01,3.317507240222362e+02,-5.577344371900442e+00,
42,1.049224938477034e-01,3.064535268723173e-01,3.318007173064405e+02,-5.562819988529342e+00,
43,1.097847963664739e-01,3.126213282123371e-01,3.318519580284860e+02,-5.547886833574476e+00,
44,1.147433786478012e-01,3.187119949174936e-01,3.319044478798581e+02,-5.532542126732270e+00,
45,1.197970172357042e-01,3.247240242069142e-01,3.319581888825236e+02,-5.516784363568821e+00,
46,1.249444652204811e-01,3.306559327023320e-01,3.320131832380367e+02,-5.500612262699794e+00,
47,1.301844525463648e-01,3.365062567940871e-01,3.320694331855711e+02,-5.484026072881157e+00,
48,1.355156863248907e-01,3.422735530022507e-01,3.321269405633449e+02,-5.467025018202442e+00,
49,1.409368511538971e-01,3.479563983327816e-01,3.321857064909249e+02,-5.449606811362559e+00,
50,1.464466094420815e-01,3.535533906286291e-01,3.322457311944207e+02,-5.431767793228299e+00,
51,1.520436017390310e-01,3.590631489156941e-01,3.323070139150134e+02,-5.413501929302859e+00,
52,1.577264470706461e-01,3.644843137435640e-01,3.323695531084192e+02,-5.394802227875382e+00,
53,1.634937432798760e-01,3.698155475209365e-01,3.324333467236228e+02,-5.375662013377254e+00,
54,1.693440673726792e-01,3.750555348456501e-01,3.324983923986978e+02,-5.356075382308117e+00,
55,1.752759758691264e-01,3.802029828292406e-01,3.325646875330782e+02,-5.336035672276741e+00,
56,1.812880051595577e-01,3.852566214159412e-01,3.326322295625533e+02,-5.315536664046331e+00,
57,1.873786718657059e-01,3.902152036960503e-01,3.327010162529624e+02,-5.294573680888187e+00,
58,1.935464732066983e-01,3.950775062135873e-01,3.327710458621671e+02,-5.273143658564094e+00,
59,1.997898873698451e-01,3.998423292681625e-01,3.328423171923808e+02,-5.251245589172861e+00,
60,2.061073738861241e-01,4.045084972109851e-01,3.329148294483482e+02,-5.228879614701591e+00,
61,2.124973740102686e-01,4.090748587349369e-01,3.329885820560497e+02,-5.206047031393262e+00,
62,2.189583111053637e-01,4.135402871586401e-01,3.330635744151247e+02,-5.182751201508899e+00,
63,2.254885910318591e-01,4.179036807044491e-01,3.331398053624820e+02,-5.158996477938840e+00,
64,2.320866025408975e-01,4.221639627702973e-01,3.332172724447292e+02,-5.134785340508775e+00,
65,2.387507176718680e-01,4.263200821953336e-01,3.332959713945139e+02,-5.110116239264217e+00,
66,2.454792921540795e-01,4.303710135192792e-01,3.333758961151027e+02,-5.084984109107517e+00,
67,2.522706658124610e-01,4.343157572354457e-01,3.334570390777718e+02,-5.059382257839455e+00,
68,2.591231629771842e-01,4.381533400373479e-01,3.335393918751130e+02,-5.033304412809269e+00,
69,2.660350928971100e-01,4.418828150588525e-01,3.336229456768189e+02,-5.006746291362302e+00,
70,2.730047501569568e-01,4.455032621078037e-01,3.337076913861251e+02,-4.979705377639163e+00,
71,2.800304150980852e-01,4.490137878930660e-01,3.337936195587168e+02,-4.952178736263344e+00,
72,2.871103542427988e-01,4.524135262449316e-01,3.338807204821559e+02,-4.924163236309174e+00,
73,2.942428207220537e-01,4.557016383288335e-01,3.339689843755183e+02,-4.895656654590062e+00,
74,3.014260547064713e-01,4.588773128523164e-01,3.340584015467038e+02,-4.866658906441937e+00,
75,3.086582838405521e-01,4.619397662652104e-01,3.341489623121693e+02,-4.837171306311082e+00,
76,3.159377236799756e-01,4.648882429529607e-01,3.342406568269425e+02,-4.807195858095001e+00,
77,3.232625781318868e-01,4.677220154230636e-01,3.343334749540635e+02,-4.776736343673310e+00,
78,3.306310398980538e-01,4.704403844845650e-01,3.344274059562676e+02,-4.745797835125187e+00,
79,3.380412909207930e-01,4.730426794205749e-01,3.345224380771364e+02,-4.714385508636954e+00,
80,3.454915028315474e-01,4.755282581537572e-01,3.346185581925258e+02,-4.682504372172718e+00,
81,3.529798374020082e-01,4.778965074047519e-01,3.347157515487610e+02,-4.650159452361485e+00,
82,3.605044469976707e-01,4.801468428434934e-01,3.348140015384101e+02,-4.617356295196888e+00,
83,3.680634750337111e-01,4.822787092333848e-01,3.349132893978923e+02,-4.584100251912942e+00,
84,3.756550564330700e-01,4.842915805682946e-01,3.350135939186159e+02,-4.550395460710845e+00,
85,3.832773180866328e-01,4.861849602023400e-01,3.351148913022205e+02,-4.516243429855638e+00,
86,3.909283793153915e-01,4.879583809724277e-01,3.352171554059677e+02,-4.481644425306052e+00,
87,3.986063523344737e-01,4.896114053135192e-01,3.353203581517374e+02,-4.446599197036151e+00,
88,4.063093427189253e-01,4.911436253665930e-01,3.354244698416687e+02,-4.411108471784804e+00,
89,4.140354498711314e-01,4.925546630792782e-01,3.355294595560281e+02,-4.375174728712831e+00,
90,4.217827674897614e-01,4.938441702991332e-01,3.356352953516352e+02,-4.338802274407840e+00,
91,4.295493840401188e-01,4.950118288595469e-01,3.357419442766292e+02,-4.301996483361985e+00,
92,4.373333832257850e-01,4.960573506582416e-01,3.358493723305620e+02,-4.264763220705158e+00,
93,4.451328444614351e-01,4.969804777283580e-01,3.359575444411992e+02,-4.227108160634370e+00,
94,4.529458433467162e-01,4.977809823021046e-01,3.360664245509570e+02,-4.189035631021448e+00,
95,4.607704521410621e-01,4.984586668669563e-01,3.361759760400242e+02,-4.150549608873778e+00,
96,4.686047402393355e-01,4.990133642143869e-01,3.362861623821859e+02,-4.111656690512516e+00,
97,4.764467746481754e-01,4.994449374811263e-01,3.363969476101028e+02,-4.072367909904705e+00,
98,4.842946204629349e-01,4.997532801829286e-01,3.365082963692760e+02,-4.032700113250550e+00,
99,4.921463413450896e-01,4.999383162408460e-01,3.366201733100222e+02,-3.992674044479650e+00,
100,4.999999999999999e-01,5.000000000000000e-01,3.367325420427300e+02,-3.952308789241479e+00,
101,5.078536586549105e-01,4.999383162408460e-01,3.368453645127323e+02,-3.911620730232194e+00,
102,5.157053795370652e-01,4.997532801829286e-01,3.369586008529021e+02,-3.870624052283639e+00,
103,5.235532253518248e-01,4.994449374811263e-01,3.370722096166675e+02,-3.829332787003173e+00,
104,5.313952597606646e-01,4.990133642143870e-01,3.371861480790663e+02,-3.787761339691048e+00,
105,5.392295478589378e-01,4.984586668669563e-01,3.373003726199205e+02,-3.745926664480981e+00,
106,5.470541566532838e-01,4.977809823021047e-01,3.374148388687534e+02,-3.703848539063536e+00,
107,5.548671555385650e-01,4.969804777283580e-01,3.375295016115972e+02,-3.661549502655447e+00,
108,5.626666167742153e-01,4.960573506582416e-01,3.376443144472545e+02,-3.619053105669131e+00,
109,5.704506159598811e-01,4.950118288595469e-01,3.377592294554706e+02,-3.576382620290274e+00,
110,5.782172325102385e-01,4.938441702991332e-01,3.378741970488355e+02,-3.533560470012660e+00,
111,5.859645501288686e-01,4.925546630792781e-01,3.379891660977241e+02,-3.490609313423856e+00,
112,5.936906572810750e-01,4.911436253665929e-01,3.381040841621709e+02,-3.447553524689441e+00,
113,6.013936476655264e-01,4.896114053135192e-01,3.382188976082928e+02,-3.404418970068309e+00,
114,6.090716206846084e-01,4.879583809724277e-01,3.383335516963006e+02,-3.361233104868554e+00,
115,6.167226819133672e-01,4.861849602023400e-01,3.384479906438042e+02,-3.318025346402896e+00,
116,6.243449435669302e-01,4.842915805682946e-01,3.385621576096253e+02,-3.274828065742861e+00,
117,6.319365249662890e-01,4.822787092333849e-01,3.386759943845516e+02,-3.231675486367654e+00,
118,6.394955530023294e-01,4.801468428434933e-01,3.387894409049811e+02,-3.188601015464153e+00,
119,6.470201625979919e-01,4.778965074047518e-01,3.389024349533470e+02,-3.145635181380023e+00,
120,6.545084971684525e-01,4.755282581537571e-01,3.390149123276787e+02,-3.102805719364801e+00,
121,6.619587090792070e-01,4.730426794205749e-01,3.391268074568827e+02,-3.060139435960691e+00,
122,6.693689601019465e-01,4.704403844845649e-01,3.392380542055889e+02,-3.017664884873976e+00,
123,6.767374218681134e-01,4.677220154230636e-01,3.393485864917406e+02,-2.975413641450660e+00,
124,6.840622763200244e-01,4.648882429529607e-01,3.394583385560126e+02,-2.933419274850054e+00,
125,6.913417161594478e-01,4.619397662652105e-01,3.395672450783365e+02,-2.891715769545541e+00,
126,6.985739452935289e-01,4.588773128523164e-01,3.396752414033179e+02,-2.850337363033443e+00,
127,7.057571792779466e-01,4.557016383288335e-01,3.397822638913047e+02,-2.809319427789094e+00,
128,7.128896457572012e-01,4.524135262449316e-01,3.398882502498211e+02,-2.768699350738492e+00,
129,7.199695849019149e-01,4.490137878930660e-01,3.399931397016168e+02,-2.728516329944562e+00,
130,7.269952498430432e-01,4.455032621078037e-01,3.400968730233982e+02,-2.688810697285128e+00,
131,7.339649071028900e-01,4.418828150588526e-01,3.401993925557836e+02,-2.649624514402191e+00,
132,7.408768370228157e-01,4.381533400373480e-01,3.403006420176289e+02,-2.611000416202533e+00,
133,7.477293341875388e-01,4.343157572354457e-01,3.404005662688858e+02,-2.572980744225680e+00,
134,7.545207078459204e-01,4.303710135192792e-01,3.404991110871880e+02,-2.535607077811219e+00,
135,7.612492823281319e-01,4.263200821953336e-01,3.405962229373293e+02,-2.498918650175554e+00,
136,7.679133974591026e-01,4.221639627702973e-01,3.406918489277275e+02,-2.462950708415083e+00,
137,7.745114089681409e-01,4.179036807044491e-01,3.407859372135073e+02,-2.427736594014396e+00,
138,7.810416888946362e-01,4.135402871586401e-01,3.408784374633048e+02,-2.393308951044697e+00,
139,7.875026259897315e-01,4.090748587349369e-01,3.409693012028719e+02,-2.359699776110047e+00,
140,7.938926261138759e-01,4.045084972109851e-01,3.410584820328611e+02,-2.326939755909617e+00,
141,8.002101126301550e-01,3.998423292681625e-01,3.411459358156131e+02,-2.295057622901711e+00,
142,8.064535267933017e-01,3.950775062135874e-01,3.412316209130263e+02,-2.264079950505659e+00,
143,8.126213281342942e-01,3.902152036960502e-01,3.413154984890667e+02,-2.234031455483212e+00,
144,8.187119948404423e-01,3.852566214159412e-01,3.413975328169497e+02,-2.204935547466972e+00,
145,8.247240241308735e-01,3.802029828292406e-01,3.414776914894047e+02,-2.176814418410912e+00,
146,8.306559326273211e-01,3.750555348456499e-01,3.415559455081248e+02,-2.149688817406659e+00,
147,8.365062567201239e-01,3.698155475209365e-01,3.416322692670607e+02,-2.123577986462687e+00,
148,8.422735529293538e-01,3.644843137435640e-01,3.417066403875916e+02,-2.098498133634651e+00,
149,8.479563982609690e-01,3.590631489156941e-01,3.417790396404243e+02,-2.074463191642034e+00,
150,8.535533905579183e-01,3.535533906286292e-01,3.418494507461322e+02,-2.051483674947715e+00,
151,8.590631488461029e-01,3.479563983327816e-01,3.419178602137388e+02,-2.029565890234210e+00,
152,8.644843136751093e-01,3.422735530022508e-01,3.419842573148143e+02,-2.008712067317058e+00,
153,8.698155474536352e-01,3.365062567940871e-01,3.420486341419849e+02,-1.988920049051774e+00,
154,8.750555347795191e-01,3.306559327023317e-01,3.421109858241063e+02,-1.970184310814557e+00,
155,8.802029827642959e-01,3.247240242069142e-01,3.421713107442860e+02,-1.952496833083739e+00,
156,8.852566213521988e-01,3.187119949174936e-01,3.422296106370740e+02,-1.935846350879913e+00,
157,8.902152036335260e-01,3.126213282123372e-01,3.422858907507033e+02,-1.920219880336576e+00,
158,8.950775061522966e-01,3.064535268723173e-01,3.423401598045713e+02,-1.905602119700881e+00,
159,8.998423292081206e-01,3.002101127101233e-01,3.423924298541447e+02,-1.891973258212688e+00,
160,9.045084971522066e-01,2.938926261947776e-01,3.424427164914553e+02,-1.879311250663574e+00,
161,9.090748586774364e-01,2.875026260715464e-01,3.424910389948255e+02,-1.867592543593439e+00,
162,9.135402871024318e-01,2.810416889773442e-01,3.425374203713425e+02,-1.856792129400798e+00,
163,9.179036806495466e-01,2.745114090517217e-01,3.425818873524763e+02,-1.846885161798518e+00,
164,9.221639627167146e-01,2.679133975435352e-01,3.426244700669764e+02,-1.837844731161175e+00,
165,9.263200821430838e-01,2.612492824133959e-01,3.426652018387156e+02,-1.829643038210339e+00,
166,9.303710134683751e-01,2.545207079319946e-01,3.427041189027793e+02,-1.822252161498894e+00,
167,9.343157571858998e-01,2.477293342744022e-01,3.427412599118734e+02,-1.815642777679078e+00,
168,9.381533399891725e-01,2.408768371104465e-01,3.427766654799566e+02,-1.809784823549258e+00,
169,9.418828150120595e-01,2.339649071912664e-01,3.428103776212950e+02,-1.804647002645352e+00,
170,9.455032620624046e-01,2.269952499321439e-01,3.428424391572022e+02,-1.800196271128664e+00,
171,9.490137878490721e-01,2.199695849917175e-01,3.428728931499558e+02,-1.796396771874140e+00,
172,9.524135262023536e-01,2.128896458476840e-01,3.429017825369681e+02,-1.793209696464310e+00,
173,9.557016382876822e-01,2.057571793690866e-01,3.429291499994702e+02,-1.790594025643315e+00,
174,9.588773128126016e-01,1.985739453853041e-01,3.429550379794949e+02,-1.788507578315215e+00,
175,9.619397662269421e-01,1.913417162518359e-01,3.429794887261431e+02,-1.786907291332456e+00,
176,9.648882429161483e-01,1.840622764130018e-01,3.430025444062882e+02,-1.785750017978362e+00,
177,9.677220153877161e-01,1.767374219616578e-01,3.430242472160534e+02,-1.784993280379477e+00,
178,9.704403844506913e-01,1.693689601960344e-01,3.430446394370805e+02,-1.784595910500494e+00,
179,9.730426793881832e-01,1.619587091738154e-01,3.430637633830495e+02,-1.784517842166509e+00,
180,9.755282581228555e-01,1.545084972635583e-01,3.430816613291042e+02,-1.784720723707112e+00,
181,9.778965073753478e-01,1.470201626935712e-01,3.430983753441329e+02,-1.785168034041221e+00,
182,9.801468428155943e-01,1.394955530983588e-01,3.431139470220322e+02,-1.785824427386901e+00,
183,9.822787092069976e-01,1.319365250627447e-01,3.431284172406235e+02,-1.786655686769671e+00,
184,9.842915805434257e-01,1.243449436637881e-01,3.431418259597556e+02,-1.787628906284888e+00,
185,9.861849601789954e-01,1.167226820106042e-01,3.431542120401894e+02,-1.788712664717034e+00,
186,9.879583809506134e-01,1.090716207822001e-01,3.431656130717827e+02,-1.789877232503021e+00,
187,9.896114052932403e-01,1.013936477634487e-01,3.431760651994924e+02,-1.791095231006758e+00,
188,9.911436253478547e-01,9.369065737930360e-02,3.431856028343404e+02,-1.792341284111735e+00,
189,9.925546630620853e-01,8.596455022737942e-02,3.431942583044565e+02,-1.793590832766265e+00,
190,9.938441702834897e-01,7.821723260900744e-02,3.432020616487613e+02,-1.794820197179990e+00,
191,9.950118288454568e-01,7.045061605888343e-02,3.432090405404902e+02,-1.796007242739267e+00,
192,9.960573506457082e-01,6.266661687342655e-02,3.432152202412246e+02,-1.797131942962520e+00,
193,9.969804777173845e-01,5.486715563796102e-02,3.432206235138234e+02,-1.798176780323966e+00,
194,9.977809822926937e-01,4.705415675283992e-02,3.432252704284778e+02,-1.799125960963653e+00,
195,9.984586668591104e-01,3.922954795862946e-02,3.432291782005549e+02,-1.799964755429749e+00,
196,9.990133642081078e-01,3.139525986046723e-02,3.432323611728006e+02,-1.800679750484810e+00,
197,9.994449374764156e-01,2.355322545171353e-02,3.432348309109973e+02,-1.801259667349856e+00,
198,9.997532801797875e-01,1.570537963701581e-02,3.432365962967536e+02,-1.801696131184662e+00,
199,9.999383162392752e-01,7.853658754898052e-03,3.432376635043286e+02,-1.801983269829316e+00,
200,1.000000000000000e+00,1.000000000000000e-10,3.432380359457269e+02,-1.802117392771515e+00,
201,9.999383162423854e-01,-7.853658556922213e-03,3.432377142355862e+02,-1.802096864827478e+00,
202,9.997532801859440e-01,-1.570537944111243e-02,3.432366961930598e+02,-1.801922439409731e+00,
203,9.994449374855543e-01,-2.355322525792876e-02,3.432349768078811e+02,-1.801596883085136e+00,
204,9.990133642201637e-01,-3.139525966884592e-02,3.432325482269031e+02,-1.801124532563700e+00,
205,9.984586668740176e-01,-3.922954776921516e-02,3.432293998282622e+02,-1.800511077804790e+00,
206,9.977809823103863e-01,-4.705415656567422e-02,3.432255184237819e+02,-1.799763934980028e+00,
207,9.969804777377951e-01,-5.486715545308397e-02,3.432208885479764e+02,-1.798893180719209e+00,
208,9.960573506687695e-01,-6.266661669087753e-02,3.432154926985545e+02,-1.797911953598062e+00,
209,9.950118288711008e-01,-7.045061587869897e-02,3.432093114914135e+02,-1.796836763452853e+00,
210,9.938441703116481e-01,-7.821723243122332e-02,3.432023236817919e+02,-1.795687196915002e+00,
211,9.925546630926887e-01,-8.596455005202992e-02,3.431945060894827e+02,-1.794484973932567e+00,
212,9.911436253808339e-01,-9.369065720642096e-02,3.431858335782018e+02,-1.793254641388860e+00,
