"PointID","x","y","Temperature"
0, 1.788837142111124e-02, 1.207338062991709e-03, 3.502860213275372e+02
1, 1.788496201658037e-02, 1.256983673166757e-03, 3.502884311683524e+02
2, 1.787696945302761e-02, 1.306099916540403e-03, 3.502949208143663e+02
3, 1.786390900684999e-02, 1.354113301568987e-03, 3.503054032101195e+02
4, 1.784625956505336e-02, 1.400640304091272e-03, 3.503200793611138e+02
5, 1.782403954365910e-02, 1.445163739270439e-03, 3.503392253502124e+02
6, 1.779750946260417e-02, 1.487260544268477e-03, 3.503634226891397e+02
7, 1.776687271188969e-02, 1.526472268813579e-03, 3.503932947334350e+02
8, 1.773264754329716e-02, 1.562591500797206e-03, 3.504294644190139e+02
9, 1.769483214877266e-02, 1.594933028157277e-03, 3.504724170871175e+02
10, 1.765406247537063e-02, 1.623462090315494e-03, 3.505233546717266e+02
11, 1.761060401824044e-02, 1.647696689073564e-03, 3.505837242862971e+02
12, 1.756499647447787e-02, 1.667596697688523e-03, 3.506552382491788e+02
13, 1.751760785428288e-02, 1.682770376439361e-03, 3.507399231954101e+02
14, 1.746896496131752e-02, 1.693254384030838e-03, 3.508406861562721e+02
15, 1.741951315173414e-02, 1.698769316633058e-03, 3.509621151899199e+02
16, 1.736975509079058e-02, 1.699989016979906e-03, 3.511130117319320e+02
17, 1.731997177804789e-02, 1.700000000000000e-03, 3.513021338203116e+02
18, 1.727018844676583e-02, 1.700000000000000e-03, 3.515303454329085e+02
19, 1.722040511548377e-02, 1.700000000000000e-03, 3.517952841803523e+02
20, 1.717062178420171e-02, 1.700000000000000e-03, 3.520935838133993e+02
21, 1.712083845291965e-02, 1.700000000000000e-03, 3.524210902738202e+02
22, 1.707105512163759e-02, 1.700000000000000e-03, 3.527729933871016e+02
23, 1.702127179035554e-02, 1.700000000000000e-03, 3.531445487718777e+02
24, 1.697148845907348e-02, 1.700000000000000e-03, 3.535315300440648e+02
25, 1.692170512779142e-02, 1.700000000000000e-03, 3.539302650719848e+02
26, 1.687192179650936e-02, 1.700000000000000e-03, 3.543377103151840e+02
27, 1.682213846522730e-02, 1.700000000000000e-03, 3.547514293307441e+02
28, 1.677235513394524e-02, 1.700000000000000e-03, 3.551695184979259e+02
29, 1.672257180266318e-02, 1.700000000000000e-03, 3.555905141016314e+02
30, 1.667278847138112e-02, 1.700000000000000e-03, 3.560133023787848e+02
31, 1.662300514009906e-02, 1.700000000000000e-03, 3.564370414280742e+02
32, 1.657322180881701e-02, 1.700000000000000e-03, 3.568610972381783e+02
33, 1.652343847753494e-02, 1.700000000000000e-03, 3.572849930579915e+02
34, 1.647365514625289e-02, 1.700000000000000e-03, 3.577083701853099e+02
35, 1.642387181497083e-02, 1.700000000000000e-03, 3.581309580304471e+02
36, 1.637408848368877e-02, 1.700000000000000e-03, 3.585525514897141e+02
37, 1.632430515240671e-02, 1.700000000000000e-03, 3.589729939708133e+02
38, 1.627452182112465e-02, 1.700000000000000e-03, 3.593921647303447e+02
39, 1.622473848984260e-02, 1.700000000000000e-03, 3.598099694688803e+02
40, 1.617495515856053e-02, 1.700000000000000e-03, 3.602263333685526e+02
41, 1.612517182727848e-02, 1.700000000000000e-03, 3.606411959516200e+02
42, 1.607538849599642e-02, 1.700000000000000e-03, 3.610545072908169e+02
43, 1.602560516471436e-02, 1.700000000000000e-03, 3.614662252199763e+02
44, 1.597582183343230e-02, 1.700000000000000e-03, 3.618763132830762e+02
45, 1.592603850215024e-02, 1.700000000000000e-03, 3.622847392274598e+02
46, 1.587625517086818e-02, 1.700000000000000e-03, 3.626914738975697e+02
47, 1.582647183958612e-02, 1.700000000000000e-03, 3.630964904231905e+02
48, 1.577668850830406e-02, 1.700000000000000e-03, 3.634997636241038e+02
49, 1.572690517702201e-02, 1.700000000000000e-03, 3.639012695736893e+02
50, 1.567712184573995e-02, 1.700000000000000e-03, 3.643009852792246e+02
51, 1.562733851445789e-02, 1.700000000000000e-03, 3.646988884478379e+02
52, 1.557755518317583e-02, 1.700000000000000e-03, 3.650949573153213e+02
53, 1.552777185189377e-02, 1.700000000000000e-03, 3.654891705210611e+02
54, 1.547798852061171e-02, 1.700000000000000e-03, 3.658815070168051e+02
55, 1.542820518932965e-02, 1.700000000000000e-03, 3.662719460002485e+02
56, 1.537842185804760e-02, 1.700000000000000e-03, 3.666604668668242e+02
57, 1.532863852676554e-02, 1.700000000000000e-03, 3.670470491748437e+02
58, 1.527885519548348e-02, 1.700000000000000e-03, 3.674316726204286e+02
59, 1.522907186420142e-02, 1.700000000000000e-03, 3.678143170196186e+02
60, 1.517928853291936e-02, 1.700000000000000e-03, 3.681949622957435e+02
61, 1.512950520163730e-02, 1.700000000000000e-03, 3.685735884706499e+02
62, 1.507972187035524e-02, 1.700000000000000e-03, 3.689501756587544e+02
63, 1.502993853907318e-02, 1.700000000000000e-03, 3.693247040631657e+02
64, 1.498015520779113e-02, 1.700000000000000e-03, 3.696971539733221e+02
65, 1.493037187650907e-02, 1.700000000000000e-03, 3.700675057637366e+02
66, 1.488058854522701e-02, 1.700000000000000e-03, 3.704357398935524e+02
67, 1.483080521394495e-02, 1.700000000000000e-03, 3.708018369066892e+02
68, 1.478102188266289e-02, 1.700000000000000e-03, 3.711657774324202e+02
69, 1.473123855138083e-02, 1.700000000000000e-03, 3.715275421862627e+02
70, 1.468145522009878e-02, 1.700000000000000e-03, 3.718871119710951e+02
71, 1.463167188881672e-02, 1.700000000000000e-03, 3.722444676784374e+02
72, 1.458188855753466e-02, 1.700000000000000e-03, 3.725995902898494e+02
73, 1.453210522625259e-02, 1.700000000000000e-03, 3.729524608784116e+02
74, 1.448232189497054e-02, 1.700000000000000e-03, 3.733030606102643e+02
75, 1.443253856368848e-02, 1.700000000000000e-03, 3.736513707461875e+02
76, 1.438275523240642e-02, 1.700000000000000e-03, 3.739973726432061e+02
77, 1.433297190112437e-02, 1.700000000000000e-03, 3.743410477562122e+02
78, 1.428318856984230e-02, 1.700000000000000e-03, 3.746823776395970e+02
79, 1.423340523856025e-02, 1.700000000000000e-03, 3.750213439488859e+02
80, 1.418362190727819e-02, 1.700000000000000e-03, 3.753579284423754e+02
81, 1.413383857599613e-02, 1.700000000000000e-03, 3.756921129827646e+02
82, 1.408405524471407e-02, 1.700000000000000e-03, 3.760238795387841e+02
83, 1.403427191343201e-02, 1.700000000000000e-03, 3.763532101868166e+02
84, 1.398448858214995e-02, 1.700000000000000e-03, 3.766800871125107e+02
85, 1.393470525086789e-02, 1.700000000000000e-03, 3.770044926123857e+02
86, 1.388492191958583e-02, 1.700000000000000e-03, 3.773264090954266e+02
87, 1.383513858830377e-02, 1.700000000000000e-03, 3.776458190846695e+02
88, 1.378535525702172e-02, 1.700000000000000e-03, 3.779627052187766e+02
89, 1.373557192573966e-02, 1.700000000000000e-03, 3.782770502536005e+02
90, 1.368578859445760e-02, 1.700000000000000e-03, 3.785888370637371e+02
91, 1.363600526317554e-02, 1.700000000000000e-03, 3.788980486440675e+02
92, 1.358622193189348e-02, 1.700000000000000e-03, 3.792046681112889e+02
93, 1.353643860061142e-02, 1.700000000000000e-03, 3.795086787054329e+02
94, 1.348665526932936e-02, 1.700000000000000e-03, 3.798100637913728e+02
95, 1.343687193804731e-02, 1.700000000000000e-03, 3.801088068603187e+02
96, 1.338708860676525e-02, 1.700000000000000e-03, 3.804048915313006e+02
97, 1.333730527548319e-02, 1.700000000000000e-03, 3.806983015526387e+02
98, 1.328752194420113e-02, 1.700000000000000e-03, 3.809890208034024e+02
99, 1.323773861291907e-02, 1.700000000000000e-03, 3.812770332948561e+02
100, 1.318795528163701e-02, 1.700000000000000e-03, 3.815623231718924e+02
101, 1.313817195035496e-02, 1.700000000000000e-03, 3.818448747144529e+02
102, 1.308838861907290e-02, 1.700000000000000e-03, 3.821246723389364e+02
103, 1.303860528779083e-02, 1.700000000000000e-03, 3.824017005995930e+02
104, 1.298882195650878e-02, 1.700000000000000e-03, 3.826759441899067e+02
105, 1.293903862522672e-02, 1.700000000000000e-03, 3.829473879439636e+02
106, 1.288925529394466e-02, 1.700000000000000e-03, 3.832160168378075e+02
107, 1.283947196266260e-02, 1.700000000000000e-03, 3.834818159907819e+02
108, 1.278968863138054e-02, 1.700000000000000e-03, 3.837447706668581e+02
109, 1.273990530009849e-02, 1.700000000000000e-03, 3.840048662759503e+02
110, 1.269012196881643e-02, 1.700000000000000e-03, 3.842620883752164e+02
111, 1.264033863753437e-02, 1.700000000000000e-03, 3.845164226703452e+02
112, 1.259055530625230e-02, 1.700000000000000e-03, 3.847678550168294e+02
113, 1.254077197497025e-02, 1.700000000000000e-03, 3.850163714212242e+02
114, 1.249098864368819e-02, 1.700000000000000e-03, 3.852619580423925e+02
115, 1.244120531240613e-02, 1.700000000000000e-03, 3.855046011927346e+02
116, 1.239142198112408e-02, 1.700000000000000e-03, 3.857442873394037e+02
117, 1.234163864984202e-02, 1.700000000000000e-03, 3.859810031055067e+02
118, 1.229185531855996e-02, 1.700000000000000e-03, 3.862147352712901e+02
119, 1.224207198727789e-02, 1.700000000000000e-03, 3.864454707753103e+02
120, 1.219228865599584e-02, 1.700000000000000e-03, 3.866731967155887e+02
121, 1.214250532471378e-02, 1.700000000000000e-03, 3.868979003507518e+02
122, 1.209272199343172e-02, 1.700000000000000e-03, 3.871195691011541e+02
123, 1.204293866214966e-02, 1.700000000000000e-03, 3.873381905499856e+02
124, 1.199315533086760e-02, 1.700000000000000e-03, 3.875537524443624e+02
125, 1.194337199958554e-02, 1.700000000000000e-03, 3.877662426964001e+02
126, 1.189358866830349e-02, 1.700000000000000e-03, 3.879756493842688e+02
127, 1.184380533702143e-02, 1.700000000000000e-03, 3.881819607532308e+02
128, 1.179402200573937e-02, 1.700000000000000e-03, 3.883851652166577e+02
129, 1.174423867445731e-02, 1.700000000000000e-03, 3.885852513570276e+02
130, 1.169445534317526e-02, 1.700000000000000e-03, 3.887822079268998e+02
131, 1.164467201189319e-02, 1.700000000000000e-03, 3.889760238498665e+02
132, 1.159488868061113e-02, 1.700000000000000e-03, 3.891666882214766e+02
133, 1.154510534932907e-02, 1.700000000000000e-03, 3.893541903101324e+02
134, 1.149532201804702e-02, 1.700000000000000e-03, 3.895385195579508e+02
135, 1.144553868676496e-02, 1.700000000000000e-03, 3.897196655815875e+02
136, 1.139575535548290e-02, 1.700000000000000e-03, 3.898976181730139e+02
137, 1.134597202420084e-02, 1.700000000000000e-03, 3.900723673002409e+02
138, 1.129618869291878e-02, 1.700000000000000e-03, 3.902439031079735e+02
139, 1.124640536163672e-02, 1.700000000000000e-03, 3.904122159181833e+02
140, 1.119662203035466e-02, 1.700000000000000e-03, 3.905772962305743e+02
141, 1.114683869907260e-02, 1.700000000000000e-03, 3.907391347229133e+02
142, 1.109705536779055e-02, 1.700000000000000e-03, 3.908977222511861e+02
143, 1.104727203650849e-02, 1.700000000000000e-03, 3.910530498495243e+02
144, 1.099748870522643e-02, 1.700000000000000e-03, 3.912051087298325e+02
145, 1.094770537394437e-02, 1.700000000000000e-03, 3.913538902810164e+02
146, 1.089792204266231e-02, 1.700000000000000e-03, 3.914993860676825e+02
147, 1.084813871138025e-02, 1.700000000000000e-03, 3.916415878281295e+02
148, 1.079835538009820e-02, 1.700000000000000e-03, 3.917804874713909e+02
149, 1.074857204881614e-02, 1.700000000000000e-03, 3.919160770730018e+02
150, 1.069878871753407e-02, 1.700000000000000e-03, 3.920483488690456e+02
151, 1.064900538625202e-02, 1.700000000000000e-03, 3.921772952478773e+02
152, 1.059922205496996e-02, 1.700000000000000e-03, 3.923029087387035e+02
153, 1.054943872368790e-02, 1.700000000000000e-03, 3.924251819959005e+02
154, 1.049965539240584e-02, 1.700000000000000e-03, 3.925441077775434e+02
155, 1.044987206112379e-02, 1.700000000000000e-03, 3.926596789160560e+02
156, 1.040008872984173e-02, 1.700000000000000e-03, 3.927718882781055e+02
157, 1.035030539855967e-02, 1.700000000000000e-03, 3.928807287097755e+02
158, 1.030052206727761e-02, 1.700000000000000e-03, 3.929861929615078e+02
159, 1.025073873599555e-02, 1.700000000000000e-03, 3.930882735851155e+02
160, 1.020095540471349e-02, 1.700000000000000e-03, 3.931869627920258e+02
161, 1.015117207343143e-02, 1.700000000000000e-03, 3.932822522573238e+02
162, 1.010138874214937e-02, 1.700000000000000e-03, 3.933741328473203e+02
163, 1.005160541086732e-02, 1.700000000000000e-03, 3.934625942378234e+02
164, 1.000182207958526e-02, 1.700000000000000e-03, 3.935476243734269e+02
165, 9.952038748303192e-03, 1.700000000000000e-03, 3.936292086900132e+02
166, 9.902255417021133e-03, 1.700000000000000e-03, 3.937073289737976e+02
167, 9.852472085739075e-03, 1.700000000000000e-03, 3.937819616406117e+02
168, 9.802688754457018e-03, 1.700000000000000e-03, 3.938530750431595e+02
169, 9.752905423174961e-03, 1.700000000000000e-03, 3.939206250430545e+02
170, 9.703122091892901e-03, 1.700000000000000e-03, 3.939845472422678e+02
171, 9.653338760610846e-03, 1.700000000000000e-03, 3.940447421998097e+02
172, 9.603555429328784e-03, 1.700000000000000e-03, 3.941010440340420e+02
173, 9.553772098046729e-03, 1.700000000000000e-03, 3.941531353111230e+02
174, 9.503989057175503e-03, 1.699955982134311e-03, 3.942001536239586e+02
175, 9.454275842183182e-03, 1.697704654976501e-03, 3.942409263509500e+02
176, 9.405008701162915e-03, 1.690730360103608e-03, 3.942758228760716e+02
177, 9.356696153012300e-03, 1.678816441340789e-03, 3.943062633949029e+02
178, 9.309776247039193e-03, 1.662250180011833e-03, 3.943330724090454e+02
179, 9.264774877383078e-03, 1.641014982593511e-03, 3.943566660447082e+02
180, 9.222049989124148e-03, 1.615509404937148e-03, 3.943774809013385e+02
181, 9.182137851242509e-03, 1.585792511771305e-03, 3.943956946061847e+02
182, 9.145296108395384e-03, 1.552346721462857e-03, 3.944115890521264e+02
183, 9.112178310468667e-03, 1.515205939522626e-03, 3.944251843228856e+02
184, 9.082681181085536e-03, 1.475129938975062e-03, 3.944368568063763e+02
185, 9.057448935201343e-03, 1.432244804039600e-03, 3.944464755040066e+02
186, 9.036542415582337e-03, 1.387088084835689e-03, 3.944542388711095e+02
187, 9.020248664704125e-03, 1.340069839782873e-03, 3.944601662778390e+02
188, 9.008674149188659e-03, 1.291676299431707e-03, 3.944643149894916e+02
189, 9.002094049030214e-03, 1.242350963581405e-03, 3.944666458729912e+02
190, 9.000152396372736e-03, 1.192627640605074e-03, 3.944673594535586e+02
191, 9.003510091621352e-03, 1.142979742007475e-03, 3.944661729693245e+02
192, 9.011584288462582e-03, 1.093878114340080e-03, 3.944633206371730e+02
193, 9.024662971860345e-03, 1.045866853129453e-03, 3.944586282598498e+02
194, 9.042273456412547e-03, 9.993264411832458e-04, 3.944522253526648e+02
195, 9.064560261261467e-03, 9.548361961428300e-04, 3.944439239939848e+02
196, 9.091013637581653e-03, 9.126895814843071e-04, 3.944337981873840e+02
197, 9.121633282984577e-03, 8.734661651234564e-04, 3.944216304128529e+02
198, 9.155904517245956e-03, 8.373899026191695e-04, 3.944074237115207e+02
199, 9.193712560460129e-03, 8.050397151840168e-04, 3.943908883359287e+02
200, 9.234477201294857e-03, 7.765035272665616e-04, 3.943719724903364e+02
201, 9.277933306597066e-03, 7.522647900687473e-04, 3.943503684237336e+02
202, 9.323540403657560e-03, 7.323638488030061e-04, 3.943258800721392e+02
203, 9.370929858916752e-03, 7.171929049722545e-04, 3.942980384226831e+02
204, 9.419574111005288e-03, 7.067153823160402e-04, 3.942663690399061e+02
205, 9.469027061077970e-03, 7.012111024328067e-04, 3.942298789514881e+02
206, 9.518785589168292e-03, 7.000103488644843e-04, 3.941871408655642e+02
207, 9.568568903398555e-03, 6.999999999999997e-04, 3.941384752030958e+02
208, 9.618352234089177e-03, 6.999999999999997e-04, 3.940850662960818e+02
209, 9.668135564779799e-03, 6.999999999999997e-04, 3.940275584054726e+02
210, 9.717918895470419e-03, 6.999999999999997e-04, 3.939662126097542e+02
211, 9.767702226161041e-03, 6.999999999999997e-04, 3.939011729144461e+02
212, 9.817485556851663e-03, 6.999999999999997e-04, 3.938325279265226e+02
213, 9.867268887542285e-03, 6.999999999999997e-04, 3.937603360070563e+02
214, 9.917052218232907e-03, 6.999999999999997e-04, 3.936846375812466e+02
215, 9.966835548923528e-03, 6.999999999999997e-04, 3.936054618086715e+02
216, 1.001661887961415e-02, 6.999999999999997e-04, 3.935228304933617e+02
217, 1.006640221030477e-02, 6.999999999999997e-04, 3.934367605169174e+02
218, 1.011618554099539e-02, 6.999999999999997e-04, 3.933472654188349e+02
219, 1.016596887168602e-02, 6.999999999999997e-04, 3.932543564546481e+02
220, 1.021575220237664e-02, 6.999999999999997e-04, 3.931580433198934e+02
221, 1.026553553306726e-02, 6.999999999999997e-04, 3.930583346531205e+02
222, 1.031531886375788e-02, 6.999999999999997e-04, 3.929552383893961e+02
223, 1.036510219444850e-02, 6.999999999999997e-04, 3.928487620109565e+02
224, 1.041488552513912e-02, 6.999999999999997e-04, 3.927389127261861e+02
225, 1.046466885582975e-02, 6.999999999999997e-04, 3.926256975981057e+02
226, 1.051445218652037e-02, 6.999999999999997e-04, 3.925091236369600e+02
227, 1.056423551721099e-02, 6.999999999999997e-04, 3.923891978670856e+02
228, 1.061401884790161e-02, 6.999999999999997e-04, 3.922659273752446e+02
229, 1.066380217859223e-02, 6.999999999999997e-04, 3.921393193455444e+02
230, 1.071358550928285e-02, 6.999999999999997e-04, 3.920093810846220e+02
231, 1.076336883997348e-02, 6.999999999999997e-04, 3.918761200397485e+02
232, 1.081315217066410e-02, 6.999999999999997e-04, 3.917395438117795e+02
233, 1.086293550135472e-02, 6.999999999999997e-04, 3.915996601643486e+02
234, 1.091271883204534e-02, 6.999999999999997e-04, 3.914564770303252e+02
235, 1.096250216273596e-02, 6.999999999999997e-04, 3.913100025162755e+02
236, 1.101228549342658e-02, 6.999999999999997e-04, 3.911602449054683e+02
237, 1.106206882411720e-02, 6.999999999999997e-04, 3.910072126598199e+02
238, 1.111185215480783e-02, 6.999999999999997e-04, 3.908509144210636e+02
239, 1.116163548549845e-02, 6.999999999999997e-04, 3.906913590113548e+02
240, 1.121141881618907e-02, 6.999999999999997e-04, 3.905285554334624e+02
241, 1.126120214687969e-02, 6.999999999999997e-04, 3.903625128706573e+02
242, 1.131098547757031e-02, 6.999999999999997e-04, 3.901932406863801e+02
243, 1.136076880826094e-02, 6.999999999999997e-04, 3.900207484237434e+02
244, 1.141055213895156e-02, 6.999999999999997e-04, 3.898450458049149e+02
245, 1.146033546964218e-02, 6.999999999999997e-04, 3.896661427304078e+02
246, 1.151011880033280e-02, 6.999999999999997e-04, 3.894840492783038e+02
247, 1.155990213102342e-02, 6.999999999999997e-04, 3.892987757034232e+02
248, 1.160968546171404e-02, 6.999999999999997e-04, 3.891103324364542e+02
249, 1.165946879240467e-02, 6.999999999999997e-04, 3.889187300830478e+02
250, 1.170925212309529e-02, 6.999999999999997e-04, 3.887239794228869e+02
251, 1.175903545378591e-02, 6.999999999999997e-04, 3.885260914087317e+02
252, 1.180881878447653e-02, 6.999999999999997e-04, 3.883250771654447e+02
253, 1.185860211516715e-02, 6.999999999999997e-04, 3.881209479889977e+02
254, 1.190838544585777e-02, 6.999999999999997e-04, 3.879137153454618e+02
255, 1.195816877654840e-02, 6.999999999999997e-04, 3.877033908699822e+02
256, 1.200795210723902e-02, 6.999999999999997e-04, 3.874899863657366e+02
257, 1.205773543792964e-02, 6.999999999999997e-04, 3.872735138028801e+02
258, 1.210751876862026e-02, 6.999999999999997e-04, 3.870539853174745e+02
259, 1.215730209931088e-02, 6.999999999999997e-04, 3.868314132104043e+02
260, 1.220708543000150e-02, 6.999999999999997e-04, 3.866058099462774e+02
261, 1.225686876069213e-02, 6.999999999999997e-04, 3.863771881523130e+02
262, 1.230665209138275e-02, 6.999999999999997e-04, 3.861455606172138e+02
263, 1.235643542207337e-02, 6.999999999999997e-04, 3.859109402900260e+02
264, 1.240621875276399e-02, 6.999999999999997e-04, 3.856733402789833e+02
265, 1.245600208345461e-02, 6.999999999999997e-04, 3.854327738503385e+02
266, 1.250578541414523e-02, 6.999999999999997e-04, 3.851892544271802e+02
267, 1.255556874483586e-02, 6.999999999999997e-04, 3.849427955882355e+02
268, 1.260535207552648e-02, 6.999999999999997e-04, 3.846934110666602e+02
269, 1.265513540621710e-02, 6.999999999999997e-04, 3.844411147488124e+02
270, 1.270491873690772e-02, 6.999999999999997e-04, 3.841859206730151e+02
271, 1.275470206759834e-02, 6.999999999999997e-04, 3.839278430283031e+02
272, 1.280448539828897e-02, 6.999999999999997e-04, 3.836668961531570e+02
273, 1.285426872897959e-02, 6.999999999999997e-04, 3.834030945342234e+02
274, 1.290405205967021e-02, 6.999999999999997e-04, 3.831364528050213e+02
