"PointID","x","y","Temperature"
0, 1.788837142111124e-02, 1.207338062991709e-03, 3.501968772297864e+02
1, 1.788496201658037e-02, 1.256983673166757e-03, 3.501979967878055e+02
2, 1.787696945302761e-02, 1.306099916540403e-03, 3.502011083676183e+02
3, 1.786390900684999e-02, 1.354113301568987e-03, 3.502060945511097e+02
4, 1.784625956505336e-02, 1.400640304091272e-03, 3.502130808127811e+02
5, 1.782403954365910e-02, 1.445163739270439e-03, 3.502221790100255e+02
6, 1.779750946260417e-02, 1.487260544268477e-03, 3.502336807557547e+02
7, 1.776687271188969e-02, 1.526472268813579e-03, 3.502478764391788e+02
8, 1.773264754329716e-02, 1.562591500797206e-03, 3.502650911310131e+02
9, 1.769483214877266e-02, 1.594933028157277e-03, 3.502854819458422e+02
10, 1.765406247537063e-02, 1.623462090315494e-03, 3.503096642750406e+02
11, 1.761060401824044e-02, 1.647696689073564e-03, 3.503383080438555e+02
12, 1.756499647447787e-02, 1.667596697688523e-03, 3.503722530596677e+02
13, 1.751760785428288e-02, 1.682770376439361e-03, 3.504124342475356e+02
14, 1.746896496131752e-02, 1.693254384030838e-03, 3.504602513249196e+02
15, 1.741951315173414e-02, 1.698769316633058e-03, 3.505178650363188e+02
16, 1.736975509079058e-02, 1.699989016979906e-03, 3.505895578425248e+02
17, 1.731997177804789e-02, 1.700000000000000e-03, 3.506798925323209e+02
18, 1.727018844676583e-02, 1.700000000000000e-03, 3.507894013533214e+02
19, 1.722040511548377e-02, 1.700000000000000e-03, 3.509168682920762e+02
20, 1.717062178420171e-02, 1.700000000000000e-03, 3.510605586740038e+02
21, 1.712083845291965e-02, 1.700000000000000e-03, 3.512183531265496e+02
22, 1.707105512163759e-02, 1.700000000000000e-03, 3.513878236232339e+02
23, 1.702127179035554e-02, 1.700000000000000e-03, 3.515665921204234e+02
24, 1.697148845907348e-02, 1.700000000000000e-03, 3.517525463569892e+02
25, 1.692170512779142e-02, 1.700000000000000e-03, 3.519438572802551e+02
26, 1.687192179650936e-02, 1.700000000000000e-03, 3.521390136141044e+02
27, 1.682213846522730e-02, 1.700000000000000e-03, 3.523368093292620e+02
28, 1.677235513394524e-02, 1.700000000000000e-03, 3.525363051664422e+02
29, 1.672257180266318e-02, 1.700000000000000e-03, 3.527367815286707e+02
30, 1.667278847138112e-02, 1.700000000000000e-03, 3.529376932494506e+02
31, 1.662300514009906e-02, 1.700000000000000e-03, 3.531386304927913e+02
32, 1.657322180881701e-02, 1.700000000000000e-03, 3.533392868094938e+02
33, 1.652343847753494e-02, 1.700000000000000e-03, 3.535394339038748e+02
34, 1.647365514625289e-02, 1.700000000000000e-03, 3.537389021167871e+02
35, 1.642387181497083e-02, 1.700000000000000e-03, 3.539375655374278e+02
36, 1.637408848368877e-02, 1.700000000000000e-03, 3.541353307561846e+02
37, 1.632430515240671e-02, 1.700000000000000e-03, 3.543321284296140e+02
38, 1.627452182112465e-02, 1.700000000000000e-03, 3.545279069896504e+02
39, 1.622473848984260e-02, 1.700000000000000e-03, 3.547226279720926e+02
40, 1.617495515856053e-02, 1.700000000000000e-03, 3.549162625589049e+02
41, 1.612517182727848e-02, 1.700000000000000e-03, 3.551087890252479e+02
42, 1.607538849599642e-02, 1.700000000000000e-03, 3.553001908579679e+02
43, 1.602560516471436e-02, 1.700000000000000e-03, 3.554904553708299e+02
44, 1.597582183343230e-02, 1.700000000000000e-03, 3.556795726863703e+02
45, 1.592603850215024e-02, 1.700000000000000e-03, 3.558675349878699e+02
46, 1.587625517086818e-02, 1.700000000000000e-03, 3.560543359700926e+02
47, 1.582647183958612e-02, 1.700000000000000e-03, 3.562399704361527e+02
48, 1.577668850830406e-02, 1.700000000000000e-03, 3.564244340017441e+02
49, 1.572690517702201e-02, 1.700000000000000e-03, 3.566077228782050e+02
50, 1.567712184573995e-02, 1.700000000000000e-03, 3.567898337134575e+02
51, 1.562733851445789e-02, 1.700000000000000e-03, 3.569707634754187e+02
52, 1.557755518317583e-02, 1.700000000000000e-03, 3.571505093665745e+02
53, 1.552777185189377e-02, 1.700000000000000e-03, 3.573290687614176e+02
54, 1.547798852061171e-02, 1.700000000000000e-03, 3.575064391606550e+02
55, 1.542820518932965e-02, 1.700000000000000e-03, 3.576826181577167e+02
56, 1.537842185804760e-02, 1.700000000000000e-03, 3.578576034142859e+02
57, 1.532863852676554e-02, 1.700000000000000e-03, 3.580313926424453e+02
58, 1.527885519548348e-02, 1.700000000000000e-03, 3.582039835916744e+02
59, 1.522907186420142e-02, 1.700000000000000e-03, 3.583753740394047e+02
60, 1.517928853291936e-02, 1.700000000000000e-03, 3.585455617841816e+02
61, 1.512950520163730e-02, 1.700000000000000e-03, 3.587145446407390e+02
62, 1.507972187035524e-02, 1.700000000000000e-03, 3.588823204364743e+02
63, 1.502993853907318e-02, 1.700000000000000e-03, 3.590488870089503e+02
64, 1.498015520779113e-02, 1.700000000000000e-03, 3.592142422041493e+02
65, 1.493037187650907e-02, 1.700000000000000e-03, 3.593783838752781e+02
66, 1.488058854522701e-02, 1.700000000000000e-03, 3.595413098819756e+02
67, 1.483080521394495e-02, 1.700000000000000e-03, 3.597030180898166e+02
68, 1.478102188266289e-02, 1.700000000000000e-03, 3.598635063700295e+02
69, 1.473123855138083e-02, 1.700000000000000e-03, 3.600227725993737e+02
70, 1.468145522009878e-02, 1.700000000000000e-03, 3.601808146601297e+02
71, 1.463167188881672e-02, 1.700000000000000e-03, 3.603376304401745e+02
72, 1.458188855753466e-02, 1.700000000000000e-03, 3.604932178331169e+02
73, 1.453210522625259e-02, 1.700000000000000e-03, 3.606475747384771e+02
74, 1.448232189497054e-02, 1.700000000000000e-03, 3.608006990618978e+02
75, 1.443253856368848e-02, 1.700000000000000e-03, 3.609525887153785e+02
76, 1.438275523240642e-02, 1.700000000000000e-03, 3.611032416175249e+02
77, 1.433297190112437e-02, 1.700000000000000e-03, 3.612526556938109e+02
78, 1.428318856984230e-02, 1.700000000000000e-03, 3.614008288768474e+02
79, 1.423340523856025e-02, 1.700000000000000e-03, 3.615477591066563e+02
80, 1.418362190727819e-02, 1.700000000000000e-03, 3.616934443309484e+02
81, 1.413383857599613e-02, 1.700000000000000e-03, 3.618378825054024e+02
82, 1.408405524471407e-02, 1.700000000000000e-03, 3.619810715939456e+02
83, 1.403427191343201e-02, 1.700000000000000e-03, 3.621230095690333e+02
84, 1.398448858214995e-02, 1.700000000000000e-03, 3.622636944119300e+02
85, 1.393470525086789e-02, 1.700000000000000e-03, 3.624031241129869e+02
86, 1.388492191958583e-02, 1.700000000000000e-03, 3.625412966719211e+02
87, 1.383513858830377e-02, 1.700000000000000e-03, 3.626782100980911e+02
88, 1.378535525702172e-02, 1.700000000000000e-03, 3.628138624107722e+02
89, 1.373557192573966e-02, 1.700000000000000e-03, 3.629482516394297e+02
90, 1.368578859445760e-02, 1.700000000000000e-03, 3.630813758239901e+02
91, 1.363600526317554e-02, 1.700000000000000e-03, 3.632132330151113e+02
92, 1.358622193189348e-02, 1.700000000000000e-03, 3.633438212744497e+02
93, 1.353643860061142e-02, 1.700000000000000e-03, 3.634731386749265e+02
94, 1.348665526932936e-02, 1.700000000000000e-03, 3.636011833009912e+02
95, 1.343687193804731e-02, 1.700000000000000e-03, 3.637279532488836e+02
96, 1.338708860676525e-02, 1.700000000000000e-03, 3.638534466268931e+02
97, 1.333730527548319e-02, 1.700000000000000e-03, 3.639776615556169e+02
98, 1.328752194420113e-02, 1.700000000000000e-03, 3.641005961682151e+02
99, 1.323773861291907e-02, 1.700000000000000e-03, 3.642222486106644e+02
100, 1.318795528163701e-02, 1.700000000000000e-03, 3.643426170420091e+02
101, 1.313817195035496e-02, 1.700000000000000e-03, 3.644616996346102e+02
102, 1.308838861907290e-02, 1.700000000000000e-03, 3.645794945743928e+02
103, 1.303860528779083e-02, 1.700000000000000e-03, 3.646960000610898e+02
104, 1.298882195650878e-02, 1.700000000000000e-03, 3.648112143084851e+02
105, 1.293903862522672e-02, 1.700000000000000e-03, 3.649251355446537e+02
106, 1.288925529394466e-02, 1.700000000000000e-03, 3.650377620121993e+02
107, 1.283947196266260e-02, 1.700000000000000e-03, 3.651490919684900e+02
108, 1.278968863138054e-02, 1.700000000000000e-03, 3.652591236858920e+02
109, 1.273990530009849e-02, 1.700000000000000e-03, 3.653678554519996e+02
110, 1.269012196881643e-02, 1.700000000000000e-03, 3.654752855698648e+02
111, 1.264033863753437e-02, 1.700000000000000e-03, 3.655814123582228e+02
112, 1.259055530625230e-02, 1.700000000000000e-03, 3.656862341517162e+02
113, 1.254077197497025e-02, 1.700000000000000e-03, 3.657897493011162e+02
114, 1.249098864368819e-02, 1.700000000000000e-03, 3.658919561735411e+02
115, 1.244120531240613e-02, 1.700000000000000e-03, 3.659928531526735e+02
116, 1.239142198112408e-02, 1.700000000000000e-03, 3.660924386389735e+02
117, 1.234163864984202e-02, 1.700000000000000e-03, 3.661907110498902e+02
118, 1.229185531855996e-02, 1.700000000000000e-03, 3.662876688200705e+02
119, 1.224207198727789e-02, 1.700000000000000e-03, 3.663833104015652e+02
120, 1.219228865599584e-02, 1.700000000000000e-03, 3.664776342640322e+02
121, 1.214250532471378e-02, 1.700000000000000e-03, 3.665706388949375e+02
122, 1.209272199343172e-02, 1.700000000000000e-03, 3.666623227997528e+02
123, 1.204293866214966e-02, 1.700000000000000e-03, 3.667526845021505e+02
124, 1.199315533086760e-02, 1.700000000000000e-03, 3.668417225441958e+02
125, 1.194337199958554e-02, 1.700000000000000e-03, 3.669294354865349e+02
126, 1.189358866830349e-02, 1.700000000000000e-03, 3.670158219085816e+02
127, 1.184380533702143e-02, 1.700000000000000e-03, 3.671008804086983e+02
128, 1.179402200573937e-02, 1.700000000000000e-03, 3.671846096043745e+02
129, 1.174423867445731e-02, 1.700000000000000e-03, 3.672670081324010e+02
130, 1.169445534317526e-02, 1.700000000000000e-03, 3.673480746490389e+02
131, 1.164467201189319e-02, 1.700000000000000e-03, 3.674278078301845e+02
132, 1.159488868061113e-02, 1.700000000000000e-03, 3.675062063715260e+02
133, 1.154510534932907e-02, 1.700000000000000e-03, 3.675832689886957e+02
134, 1.149532201804702e-02, 1.700000000000000e-03, 3.676589944174109e+02
135, 1.144553868676496e-02, 1.700000000000000e-03, 3.677333814136060e+02
136, 1.139575535548290e-02, 1.700000000000000e-03, 3.678064287535500e+02
137, 1.134597202420084e-02, 1.700000000000000e-03, 3.678781352339475e+02
138, 1.129618869291878e-02, 1.700000000000000e-03, 3.679484996720176e+02
139, 1.124640536163672e-02, 1.700000000000000e-03, 3.680175209055441e+02
140, 1.119662203035466e-02, 1.700000000000000e-03, 3.680851977928886e+02
141, 1.114683869907260e-02, 1.700000000000000e-03, 3.681515292129529e+02
142, 1.109705536779055e-02, 1.700000000000000e-03, 3.682165140650765e+02
143, 1.104727203650849e-02, 1.700000000000000e-03, 3.682801512688447e+02
144, 1.099748870522643e-02, 1.700000000000000e-03, 3.683424397637779e+02
145, 1.094770537394437e-02, 1.700000000000000e-03, 3.684033785088610e+02
146, 1.089792204266231e-02, 1.700000000000000e-03, 3.684629664818563e+02
147, 1.084813871138025e-02, 1.700000000000000e-03, 3.685212026783245e+02
148, 1.079835538009820e-02, 1.700000000000000e-03, 3.685780861102491e+02
149, 1.074857204881614e-02, 1.700000000000000e-03, 3.686336158041234e+02
150, 1.069878871753407e-02, 1.700000000000000e-03, 3.686877907983083e+02
151, 1.064900538625202e-02, 1.700000000000000e-03, 3.687406101393983e+02
152, 1.059922205496996e-02, 1.700000000000000e-03, 3.687920728772382e+02
153, 1.054943872368790e-02, 1.700000000000000e-03, 3.688421780581018e+02
154, 1.049965539240584e-02, 1.700000000000000e-03, 3.688909247153647e+02
155, 1.044987206112379e-02, 1.700000000000000e-03, 3.689383118567534e+02
156, 1.040008872984173e-02, 1.700000000000000e-03, 3.689843384469107e+02
157, 1.035030539855967e-02, 1.700000000000000e-03, 3.690290033835354e+02
158, 1.030052206727761e-02, 1.700000000000000e-03, 3.690723054646854e+02
159, 1.025073873599555e-02, 1.700000000000000e-03, 3.691142433438799e+02
160, 1.020095540471349e-02, 1.700000000000000e-03, 3.691548154682829e+02
161, 1.015117207343143e-02, 1.700000000000000e-03, 3.691940199932855e+02
162, 1.010138874214937e-02, 1.700000000000000e-03, 3.692318546638985e+02
163, 1.005160541086732e-02, 1.700000000000000e-03, 3.692683166489449e+02
164, 1.000182207958526e-02, 1.700000000000000e-03, 3.693034023070706e+02
165, 9.952038748303192e-03, 1.700000000000000e-03, 3.693371068522100e+02
166, 9.902255417021133e-03, 1.700000000000000e-03, 3.693694238667683e+02
167, 9.852472085739075e-03, 1.700000000000000e-03, 3.694003445759644e+02
168, 9.802688754457018e-03, 1.700000000000000e-03, 3.694298567295964e+02
169, 9.752905423174961e-03, 1.700000000000000e-03, 3.694579427985468e+02
170, 9.703122091892901e-03, 1.700000000000000e-03, 3.694845768835526e+02
171, 9.653338760610846e-03, 1.700000000000000e-03, 3.695097189790322e+02
172, 9.603555429328784e-03, 1.700000000000000e-03, 3.695333030187655e+02
173, 9.553772098046729e-03, 1.700000000000000e-03, 3.695552041883695e+02
174, 9.503989057175503e-03, 1.699955982134311e-03, 3.695750798163758e+02
175, 9.454275842183182e-03, 1.697704654976501e-03, 3.695923667541465e+02
176, 9.405008701162915e-03, 1.690730360103608e-03, 3.696071350110619e+02
177, 9.356696153012300e-03, 1.678816441340789e-03, 3.696199983420790e+02
178, 9.309776247039193e-03, 1.662250180011833e-03, 3.696313248248101e+02
179, 9.264774877383078e-03, 1.641014982593511e-03, 3.696412847244659e+02
180, 9.222049989124148e-03, 1.615509404937148e-03, 3.696500749402313e+02
181, 9.182137851242509e-03, 1.585792511771305e-03, 3.696577577078717e+02
182, 9.145296108395384e-03, 1.552346721462857e-03, 3.696644667080218e+02
183, 9.112178310468667e-03, 1.515205939522626e-03, 3.696701894551332e+02
184, 9.082681181085536e-03, 1.475129938975062e-03, 3.696751143756969e+02
185, 9.057448935201343e-03, 1.432244804039600e-03, 3.696791646286484e+02
186, 9.036542415582337e-03, 1.387088084835689e-03, 3.696824354991036e+02
187, 9.020248664704125e-03, 1.340069839782873e-03, 3.696849291018659e+02
188, 9.008674149188659e-03, 1.291676299431707e-03, 3.696866746926023e+02
189, 9.002094049030214e-03, 1.242350963581405e-03, 3.696876479696640e+02
190, 9.000152396372736e-03, 1.192627640605074e-03, 3.696879553246523e+02
191, 9.003510091621352e-03, 1.142979742007475e-03, 3.696874450668071e+02
192, 9.011584288462582e-03, 1.093878114340080e-03, 3.696862443204791e+02
193, 9.024662971860345e-03, 1.045866853129453e-03, 3.696842578664680e+02
194, 9.042273456412547e-03, 9.993264411832458e-04, 3.696815572369506e+02
195, 9.064560261261467e-03, 9.548361961428300e-04, 3.696780435713075e+02
196, 9.091013637581653e-03, 9.126895814843071e-04, 3.696737658936318e+02
197, 9.121633282984577e-03, 8.734661651234564e-04, 3.696686176982032e+02
198, 9.155904517245956e-03, 8.373899026191695e-04, 3.696626168020625e+02
199, 9.193712560460129e-03, 8.050397151840168e-04, 3.696556261904524e+02
200, 9.234477201294857e-03, 7.765035272665616e-04, 3.696476398674816e+02
201, 9.277933306597066e-03, 7.522647900687473e-04, 3.696385124775663e+02
202, 9.323540403657560e-03, 7.323638488030061e-04, 3.696281729877597e+02
203, 9.370929858916752e-03, 7.171929049722545e-04, 3.696164091688453e+02
204, 9.419574111005288e-03, 7.067153823160402e-04, 3.696030247832807e+02
205, 9.469027061077970e-03, 7.012111024328067e-04, 3.695875758730635e+02
206, 9.518785589168292e-03, 7.000103488644843e-04, 3.695694627637802e+02
207, 9.568568903398555e-03, 6.999999999999997e-04, 3.695489332740539e+02
208, 9.618352234089177e-03, 6.999999999999997e-04, 3.695265116564121e+02
209, 9.668135564779799e-03, 6.999999999999997e-04, 3.695024520177865e+02
210, 9.717918895470419e-03, 6.999999999999997e-04, 3.694768568058961e+02
211, 9.767702226161041e-03, 6.999999999999997e-04, 3.694497831156726e+02
212, 9.817485556851663e-03, 6.999999999999997e-04, 3.694212662769717e+02
213, 9.867268887542285e-03, 6.999999999999997e-04, 3.693913294732486e+02
214, 9.917052218232907e-03, 6.999999999999997e-04, 3.693599885343239e+02
215, 9.966835548923528e-03, 6.999999999999997e-04, 3.693272545837902e+02
216, 1.001661887961415e-02, 6.999999999999997e-04, 3.692931356161120e+02
217, 1.006640221030477e-02, 6.999999999999997e-04, 3.692576374910228e+02
218, 1.011618554099539e-02, 6.999999999999997e-04, 3.692207645867013e+02
219, 1.016596887168602e-02, 6.999999999999997e-04, 3.691825202416314e+02
220, 1.021575220237664e-02, 6.999999999999997e-04, 3.691429070598590e+02
221, 1.026553553306726e-02, 6.999999999999997e-04, 3.691019271250064e+02
222, 1.031531886375788e-02, 6.999999999999997e-04, 3.690595821518936e+02
223, 1.036510219444850e-02, 6.999999999999997e-04, 3.690158735948004e+02
224, 1.041488552513912e-02, 6.999999999999997e-04, 3.689708027252398e+02
225, 1.046466885582975e-02, 6.999999999999997e-04, 3.689243706880934e+02
226, 1.051445218652037e-02, 6.999999999999997e-04, 3.688765785422739e+02
227, 1.056423551721099e-02, 6.999999999999997e-04, 3.688274272902508e+02
228, 1.061401884790161e-02, 6.999999999999997e-04, 3.687769178995235e+02
229, 1.066380217859223e-02, 6.999999999999997e-04, 3.687250513182482e+02
230, 1.071358550928285e-02, 6.999999999999997e-04, 3.686718284866111e+02
231, 1.076336883997348e-02, 6.999999999999997e-04, 3.686172503450979e+02
232, 1.081315217066410e-02, 6.999999999999997e-04, 3.685613178404998e+02
233, 1.086293550135472e-02, 6.999999999999997e-04, 3.685040319302639e+02
234, 1.091271883204534e-02, 6.999999999999997e-04, 3.684453935856337e+02
235, 1.096250216273596e-02, 6.999999999999997e-04, 3.683854037939047e+02
236, 1.101228549342658e-02, 6.999999999999997e-04, 3.683240635600332e+02
237, 1.106206882411720e-02, 6.999999999999997e-04, 3.682613739077699e+02
238, 1.111185215480783e-02, 6.999999999999997e-04, 3.681973358804478e+02
239, 1.116163548549845e-02, 6.999999999999997e-04, 3.681319505415160e+02
240, 1.121141881618907e-02, 6.999999999999997e-04, 3.680652189748863e+02
241, 1.126120214687969e-02, 6.999999999999997e-04, 3.679971422851448e+02
242, 1.131098547757031e-02, 6.999999999999997e-04, 3.679277215976620e+02
243, 1.136076880826094e-02, 6.999999999999997e-04, 3.678569580586299e+02
244, 1.141055213895156e-02, 6.999999999999997e-04, 3.677848528350447e+02
245, 1.146033546964218e-02, 6.999999999999997e-04, 3.677114071146489e+02
246, 1.151011880033280e-02, 6.999999999999997e-04, 3.676366221058439e+02
247, 1.155990213102342e-02, 6.999999999999997e-04, 3.675604990375803e+02
248, 1.160968546171404e-02, 6.999999999999997e-04, 3.674830391592305e+02
249, 1.165946879240467e-02, 6.999999999999997e-04, 3.674042437404499e+02
250, 1.170925212309529e-02, 6.999999999999997e-04, 3.673241140710265e+02
251, 1.175903545378591e-02, 6.999999999999997e-04, 3.672426514607234e+02
252, 1.180881878447653e-02, 6.999999999999997e-04, 3.671598572391151e+02
253, 1.185860211516715e-02, 6.999999999999997e-04, 3.670757327554180e+02
254, 1.190838544585777e-02, 6.999999999999997e-04, 3.669902793783165e+02
255, 1.195816877654840e-02, 6.999999999999997e-04, 3.669034984957857e+02
256, 1.200795210723902e-02, 6.999999999999997e-04, 3.668153915149102e+02
257, 1.205773543792964e-02, 6.999999999999997e-04, 3.667259598616992e+02
258, 1.210751876862026e-02, 6.999999999999997e-04, 3.666352049808998e+02
259, 1.215730209931088e-02, 6.999999999999997e-04, 3.665431283358067e+02
260, 1.220708543000150e-02, 6.999999999999997e-04, 3.664497314080689e+02
261, 1.225686876069213e-02, 6.999999999999997e-04, 3.663550156974945e+02
262, 1.230665209138275e-02, 6.999999999999997e-04, 3.662589827218529e+02
263, 1.235643542207337e-02, 6.999999999999997e-04, 3.661616340166732e+02
264, 1.240621875276399e-02, 6.999999999999997e-04, 3.660629711350422e+02
265, 1.245600208345461e-02, 6.999999999999997e-04, 3.659629956473976e+02
266, 1.250578541414523e-02, 6.999999999999997e-04, 3.658617091413210e+02
267, 1.255556874483586e-02, 6.999999999999997e-04, 3.657591132213263e+02
268, 1.260535207552648e-02, 6.999999999999997e-04, 3.656552095086478e+02
269, 1.265513540621710e-02, 6.999999999999997e-04, 3.655499996410239e+02
270, 1.270491873690772e-02, 6.999999999999997e-04, 3.654434852724797e+02
271, 1.275470206759834e-02, 6.999999999999997e-04, 3.653356680731069e+02
272, 1.280448539828897e-02, 6.999999999999997e-04, 3.652265497288414e+02
273, 1.285426872897959e-02, 6.999999999999997e-04, 3.651161319412378e+02
274, 1.290405205967021e-02, 6.999999999999997e-04, 3.650044164272429e+02
