"PointID","x","y","Density","Momentum_x","Momentum_y","Energy","Pressure","Temperature","Mach","Pressure_Coefficient"
0, 9.997500181200000e-01, -3.632896519016437e-05, 1.474409176638567e+00, 2.602803225399064e+02, 3.478925429415190e+01, 3.506044251632731e+05, 1.308880384678119e+05, 3.092518307712294e+02, 5.052001334391300e-01, 6.512600557746439e-01
1, 9.990000128750000e-01, -1.452537504052920e-04, 1.427983345065929e+00, 2.698696234180654e+02, 3.865657310866963e+01, 3.405292753223255e+05, 1.258020727133225e+05, 3.068986653196294e+02, 5.436193254488694e-01, 5.392185839704827e-01
2, 9.977599978450000e-01, -3.251111630156300e-04, 1.408654073803530e+00, 2.791345631095710e+02, 4.020769471410205e+01, 3.366507712948795e+05, 1.233682866488997e+05, 3.050910889161599e+02, 5.717485514635955e-01, 4.856034033189641e-01
3, 9.960200190539999e-01, -5.769983605901485e-04, 1.392599923783784e+00, 2.855328784964640e+02, 4.112240178580164e+01, 3.333771920871442e+05, 1.213991202377447e+05, 3.036823263867166e+02, 5.929650339372396e-01, 4.422235786045759e-01
4, 9.937800168990000e-01, -9.004365425509819e-04, 1.379270827674145e+00, 2.903948132538517e+02, 4.178923511509686e+01, 3.306462721447978e+05, 1.197772055476196e+05, 3.025206125941420e+02, 6.100477990803997e-01, 4.064935485975908e-01
5, 9.910500049590000e-01, -1.293363843462116e-03, 1.367989145477803e+00, 2.944716937705143e+02, 4.225883948073322e+01, 3.283413352021993e+05, 1.183979244085898e+05, 3.015031007225215e+02, 6.247305523044637e-01, 3.761086234312715e-01
6, 9.878399968150000e-01, -1.753609743384430e-03, 1.357742309376705e+00, 2.978366314752111e+02, 4.257720630904315e+01, 3.262334359836811e+05, 1.171595514845968e+05, 3.006011891084818e+02, 6.375429909199968e-01, 3.488278410303841e-01
7, 9.841300249100000e-01, -2.283176811071472e-03, 1.348410232954864e+00, 3.008096317959730e+02, 4.280593898230504e+01, 3.243131619604710e+05, 1.160322831177587e+05, 2.997692928176726e+02, 6.492030907894570e-01, 3.239946406048135e-01
8, 9.799500107769999e-01, -2.876826092032643e-03, 1.339719928710384e+00, 3.034425595439159e+02, 4.295610240449873e+01, 3.225205107214989e+05, 1.149869731844599e+05, 2.989957187258109e+02, 6.599176393713093e-01, 3.009669465400394e-01
9, 9.752799868580000e-01, -3.536324145770189e-03, 1.331571856765059e+00, 3.058273674473783e+02, 4.304068938898937e+01, 3.208378258376906e+05, 1.140087717329054e+05, 2.982661748151754e+02, 6.699150889073532e-01, 2.794176212705187e-01
10, 9.701499938960000e-01, -4.256268552403566e-03, 1.323851651888633e+00, 3.080023388927324e+02, 4.306680215558765e+01, 3.192409829078062e+05, 1.130844553265349e+05, 2.975732815039534e+02, 6.793184922280574e-01, 2.590553586085904e-01
11, 9.645400047300000e-01, -5.038225493362627e-03, 1.316483926133710e+00, 3.100052096533644e+02, 4.304250952576570e+01, 3.177148767611028e+05, 1.122045099676473e+05, 2.969101865211209e+02, 6.882374760589722e-01, 2.396705695879442e-01
12, 9.584699869160000e-01, -5.878077433056352e-03, 1.309420529833723e+00, 3.118654853727523e+02, 4.297181097506282e+01, 3.162501445469367e+05, 1.113625744439197e+05, 2.962718994363452e+02, 6.967519499017791e-01, 2.211231196450525e-01
13, 9.519400000570000e-01, -6.774428848839826e-03, 1.302613701760567e+00, 3.135975212164203e+02, 4.285874620269210e+01, 3.148366165834017e+05, 1.105532212263118e+05, 2.956555967049225e+02, 7.049098440673437e-01, 2.032934428270017e-01
14, 9.449599981310000e-01, -7.724467125531491e-03, 1.296036403001180e+00, 3.152216616126605e+02, 4.270704114753945e+01, 3.134692837934961e+05, 1.097726293918128e+05, 2.950578762679737e+02, 7.127645884805277e-01, 1.860973659681709e-01
15, 9.375399947170000e-01, -8.725349486403867e-03, 1.289663519530484e+00, 3.167477764938005e+02, 4.251955468924426e+01, 3.121429137965208e+05, 1.090178299247904e+05, 2.944770561995098e+02, 7.203452522934435e-01, 1.694694830282332e-01
16, 9.296900033950000e-01, -9.774221272349531e-03, 1.283468347866882e+00, 3.181881226995046e+02, 4.229875236731081e+01, 3.108521356005889e+05, 1.082854733576285e+05, 2.939106896460052e+02, 7.276896384586748e-01, 1.533360067857248e-01
17, 9.214000105860000e-01, -1.087086069705918e-02, 1.277427265516765e+00, 3.195517084404241e+02, 4.204805315437672e+01, 3.095921021373841e+05, 1.075726924458082e+05, 2.933568289908607e+02, 7.348278863907713e-01, 1.376337731708484e-01
18, 9.126999974250000e-01, -1.200973104171110e-02, 1.271531053781644e+00, 3.208459473684467e+02, 4.176826988452124e+01, 3.083610966008601e+05, 1.068781934785676e+05, 2.928144323915356e+02, 7.417776106217332e-01, 1.223342823342416e-01
19, 9.035800099370001e-01, -1.319055953446835e-02, 1.265757340397322e+00, 3.220729845440886e+02, 4.146181723030828e+01, 3.071541178778632e+05, 1.061996715424436e+05, 2.922826688234028e+02, 7.485531542716943e-01, 1.073867580990189e-01
20, 8.940600156780000e-01, -1.440916392228702e-02, 1.260104787947687e+00, 3.232448597812166e+02, 4.113042489631751e+01, 3.059716114983757e+05, 1.055362443477709e+05, 2.917597100610499e+02, 7.551809906077015e-01, 9.277176403217323e-02
21, 8.841500282290000e-01, -1.566269158090452e-02, 1.254561864813886e+00, 3.243624456246187e+02, 4.077570379607834e+01, 3.048109496989400e+05, 1.048867738197897e+05, 2.912453435299245e+02, 7.616665915613647e-01, 7.846422887344688e-02
22, 8.738499879840000e-01, -1.694956337677533e-02, 1.249102997962036e+00, 3.254257088876210e+02, 4.039853809311240e+01, 3.036663043434556e+05, 1.042487368052321e+05, 2.907387345843263e+02, 7.680229947009749e-01, 6.440856872405165e-02
23, 8.631799817090000e-01, -1.826569132102762e-02, 1.243737339992588e+00, 3.264491877261661e+02, 4.000117713594405e+01, 3.025407225105797e+05, 1.036220751519760e+05, 2.902377893452461e+02, 7.742785788758131e-01, 5.060350251964958e-02
24, 8.521599769590000e-01, -1.960709133914372e-02, 1.238434046582392e+00, 3.274271953383360e+02, 3.958368293791741e+01, 3.014268070061791e+05, 1.030041133407506e+05, 2.897423848142087e+02, 7.804366811936893e-01, 3.699008980892963e-02
25, 8.407700061800000e-01, -2.097463226217677e-02, 1.233190342167924e+00, 3.283683633994045e+02, 3.914846071603873e+01, 3.003245364808470e+05, 1.023939663102660e+05, 2.892508184670506e+02, 7.865200240352359e-01, 2.354883310127479e-02
26, 8.290500044819999e-01, -2.236196298315981e-02, 1.227992805502080e+00, 3.292716870357765e+02, 3.869417637226223e+01, 2.992307657370835e+05, 1.017903963363995e+05, 2.887628558229929e+02, 7.925328378755155e-01, 1.025246590707783e-02
27, 8.170099854470000e-01, -2.376642068849115e-02, 1.222838424899691e+00, 3.301432169416559e+02, 3.822236758671920e+01, 2.981452442375437e+05, 1.011926704353891e+05, 2.882772199719278e+02, 7.984920095794585e-01, -2.915159066716854e-03
28, 8.046399950980000e-01, -2.518763605296113e-02, 1.217718380513430e+00, 3.309813681191604e+02, 3.773310078310743e+01, 2.970658372652237e+05, 1.006000430618373e+05, 2.877939437276774e+02, 8.043981461552384e-01, -1.597046584017777e-02
29, 7.919700145720000e-01, -2.662062628442961e-02, 1.212632757542659e+00, 3.317875820543877e+02, 3.722551227827162e+01, 2.959926213891326e+05, 1.000124654777948e+05, 2.873129378318035e+02, 8.102533033691209e-01, -2.891452808777541e-02
30, 7.790099978450000e-01, -2.806276676215449e-02, 1.207579201053767e+00, 3.325689110464460e+02, 3.670028942860240e+01, 2.949255894244274e+05, 9.942917581427115e+04, 2.868326336295955e+02, 8.160773864908450e-01, -4.176412943077554e-02
31, 7.657799720760000e-01, -2.951033727360171e-02, 1.202537281561182e+00, 3.333243614064725e+02, 3.615724870753196e+01, 2.938600900088451e+05, 9.884815384424354e+04, 2.863520907693072e+02, 8.218824068384983e-01, -5.456377453553935e-02
32, 7.522799968720000e-01, -3.096181144522562e-02, 1.197469637328296e+00, 3.340530225022841e+02, 3.559505163190913e+01, 2.927877189959653e+05, 9.826560264686933e+04, 2.858691937890423e+02, 8.276943055598901e-01, -6.739710781102776e-02
33, 7.385200262070000e-01, -3.241453277608040e-02, 1.192374735649984e+00, 3.347626167594702e+02, 3.501406450043612e+01, 2.917087485224734e+05, 9.768074953426457e+04, 2.853819907893463e+02, 8.335366853095892e-01, -8.028115121372682e-02
34, 7.245299816130000e-01, -3.386376679305321e-02, 1.187258687515443e+00, 3.354539263687406e+02, 3.441192757447430e+01, 2.906245797880884e+05, 9.709418897552157e+04, 2.848906706791328e+02, 8.394072805443409e-01, -9.320280886465125e-02
35, 7.103199958800001e-01, -3.530689307158652e-02, 1.182106157703495e+00, 3.361196637649155e+02, 3.378848144667977e+01, 2.895312237076858e+05, 9.650490207153212e+04, 2.843958403844044e+02, 8.452988964493536e-01, -1.061845266396117e-01
36, 6.958900094030001e-01, -3.674225211597043e-02, 1.176936651239779e+00, 3.367743877184471e+02, 3.314169910547266e+01, 2.884341721052038e+05, 9.591376667621679e+04, 2.838953011995018e+02, 8.512376757552738e-01, -1.192069658230060e-01
37, 6.812700033190000e-01, -3.816515293304169e-02, 1.171704192757753e+00, 3.374009412104915e+02, 3.246925073502744e+01, 2.873218343350522e+05, 9.531735944976521e+04, 2.833898974360706e+02, 8.572134903880726e-01, -1.323455410065470e-01
38, 6.664699912070000e-01, -3.957289370556494e-02, 1.166421212632742e+00, 3.380129888094796e+02, 3.177032699845722e+01, 2.861980936623904e+05, 9.471585644390166e+04, 2.828769929855552e+02, 8.632573024176242e-01, -1.455963738522245e-01
39, 6.514999866490000e-01, -4.096270419333766e-02, 1.161065365019690e+00, 3.386078822895240e+02, 3.104171026321422e+01, 2.850577927121276e+05, 9.410711765742846e+04, 2.823554319584266e+02, 8.693823138342983e-01, -1.590066075960386e-01
40, 6.363800168040000e-01, -4.233084266562091e-02, 1.155627473780459e+00, 3.391830487724579e+02, 3.028290043068953e+01, 2.838987205215209e+05, 9.349035740926485e+04, 2.818248647186903e+02, 8.755921433785182e-01, -1.725935504285880e-01
41, 6.211299896240000e-01, -4.367359094194759e-02, 1.150102162071063e+00, 3.397437395643265e+02, 2.948934034342265e+01, 2.827201374767349e+05, 9.286455944354663e+04, 2.812832868078793e+02, 8.819096501504934e-01, -1.863795899962410e-01
42, 6.057599782940000e-01, -4.498807223669178e-02, 1.144474885022223e+00, 3.402830055156356e+02, 2.866070965144545e+01, 2.815182957614375e+05, 9.222872168413203e+04, 2.807309322155048e+02, 8.883314259269282e-01, -2.003868015726439e-01
43, 5.902799963950000e-01, -4.627132533375768e-02, 1.138750669437580e+00, 3.408073622940525e+02, 2.779162026070151e+01, 2.802948735133334e+05, 9.158280760677064e+04, 2.801661443206355e+02, 8.948759999164768e-01, -2.146159897701297e-01
44, 5.747100114820000e-01, -4.751950934859488e-02, 1.132914341378424e+00, 3.413093123078963e+02, 2.688103759796160e+01, 2.790459418249847e+05, 9.092579079135769e+04, 2.795891782610706e+02, 9.015396350351254e-01, -2.290897661485828e-01
45, 5.590599775310000e-01, -4.872955796694115e-02, 1.126953657644507e+00, 3.417946189388156e+02, 2.592512510743337e+01, 2.777693445734922e+05, 9.025582917275363e+04, 2.789970095309926e+02, 9.083563594027693e-01, -2.438487105505264e-01
46, 5.433599948880000e-01, -4.989683951066199e-02, 1.120865932574222e+00, 3.422536449163608e+02, 2.492350399830661e+01, 2.764637342884648e+05, 8.957339314424286e+04, 2.783913274998256e+02, 9.153057838337700e-01, -2.588824604296012e-01
47, 5.276100039480000e-01, -5.101897737545535e-02, 1.114755947938570e+00, 3.426854238888139e+02, 2.387005797131372e+01, 2.751520839296927e+05, 8.888972798026778e+04, 2.777807359633128e+02, 9.222888639688880e-01, -2.739432875941151e-01
48, 5.118399858470000e-01, -5.209138375948307e-02, 1.108755762746589e+00, 3.430802134171966e+02, 2.275628712477319e+01, 2.738624979753740e+05, 8.821985520185817e+04, 2.771793013985211e+02, 9.291456545782317e-01, -2.887002748876897e-01
49, 4.960500001910000e-01, -5.311153541819326e-02, 1.102812222060620e+00, 3.434556565317432e+02, 2.157521158285285e+01, 2.725847977035816e+05, 8.755659494782581e+04, 2.765780041600880e+02, 9.359801496321539e-01, -3.033115913294868e-01
50, 4.802699983120000e-01, -5.407492053959814e-02, 1.096402036882259e+00, 3.438188650239473e+02, 2.033832521326212e+01, 2.712050090762282e+05, 8.684303262745313e+04, 2.759278217792018e+02, 9.433477030430376e-01, -3.190310390131401e-01
51, 4.645099937920000e-01, -5.497835513414191e-02, 1.088957674431169e+00, 3.441625729414899e+02, 1.907199897987179e+01, 2.695986620226223e+05, 8.601830122326357e+04, 2.751757803788564e+02, 9.518412154609276e-01, -3.371994901646143e-01
52, 4.487800002100000e-01, -5.581859897363720e-02, 1.081455787754809e+00, 3.444288716724893e+02, 1.777357392263752e+01, 2.679747836846411e+05, 8.519231562133365e+04, 2.744239423446136e+02, 9.603032572637041e-01, -3.553955707118703e-01
53, 4.331099987030000e-01, -5.659141825851464e-02, 1.077165033698718e+00, 3.445735786010226e+02, 1.637732947107829e+01, 2.670434033171955e+05, 8.472247999158164e+04, 2.739975995669040e+02, 9.650892788583650e-01, -3.657458321970137e-01
54, 4.174999892710000e-01, -5.729416860686566e-02, 1.079114021191554e+00, 3.445911281352311e+02, 1.478235456601670e+01, 2.674645452823027e+05, 8.493781183001320e+04, 2.741978709539196e+02, 9.628421901286036e-01, -3.610021714511913e-01
55, 4.019699990750000e-01, -5.792324246601335e-02, 1.084527541146507e+00, 3.445769355956550e+02, 1.293858581810121e+01, 2.686406808002612e+05, 8.552954993889708e+04, 2.747299118678396e+02, 9.568629742806835e-01, -3.479664547668156e-01
56, 3.865399956700000e-01, -5.847520956655861e-02, 1.080210991938449e+00, 3.447237676058471e+02, 1.102312111909729e+01, 2.677036959056515e+05, 8.505689500968633e+04, 2.743034550418909e+02, 9.616567241526384e-01, -3.583788241142732e-01
57, 3.712300062180000e-01, -5.894684318665333e-02, 1.049609146626300e+00, 3.449994571150789e+02, 9.386393526842982e+00, 2.610454605082970e+05, 8.172159658763398e+04, 2.712311600858416e+02, 9.959392455756164e-01, -4.318539047875918e-01
58, 3.560400009160000e-01, -5.933561549045978e-02, 9.960947745952755e-01, 3.445582923521795e+02, 8.182160605114593e+00, 2.493869124216156e+05, 7.590415002508672e+04, 2.654576252060582e+02, 1.059346446517745e+00, -5.600095602664974e-01
59, 3.409900069240000e-01, -5.963847719943702e-02, 9.555991004553268e-01, 3.431516940717052e+02, 6.377630855897176e+00, 2.405142293837229e+05, 7.155230744965537e+04, 2.608424415644341e+02, 1.109295970293300e+00, -6.558786381856612e-01
60, 3.261100053790000e-01, -5.985254444802346e-02, 9.425581470209747e-01, 3.422964038698449e+02, 4.136007717039084e+00, 2.376234880367309e+05, 7.018431181746491e+04, 2.593953816704087e+02, 1.124853389985161e+00, -6.860149488592023e-01
61, 3.113999962810000e-01, -5.997565198183213e-02, 9.447168353582353e-01, 3.422421182283378e+02, 1.860817116219075e+00, 2.380787612730725e+05, 7.043399360526739e+04, 2.597233548913929e+02, 1.121331113068508e+00, -6.805145746257758e-01
62, 2.968699932100000e-01, -6.000550062925582e-02, 9.501544283378427e-01, 3.424821940671347e+02, -4.197148233553151e-01, 2.392699989120215e+05, 7.101849101433836e+04, 2.603799796869643e+02, 1.114272691111590e+00, -6.676383672073077e-01
63, 2.825500071050000e-01, -5.994005483718394e-02, 9.544337817099438e-01, 3.427327317133606e+02, -2.734926758450346e+00, 2.402159258723430e+05, 7.147005699891853e+04, 2.608607095213496e+02, 1.109099286442386e+00, -6.576905775501717e-01
64, 2.684499919410000e-01, -5.977765596976551e-02, 9.579754186938023e-01, 3.429608928263145e+02, -5.161256013967122e+00, 2.410032367243374e+05, 7.183932571306152e+04, 2.612391291143131e+02, 1.105023336743130e+00, -6.495557586738765e-01
65, 2.545700073240000e-01, -5.951657836311273e-02, 9.618540020344556e-01, 3.431540597397479e+02, -7.721419164374742e+00, 2.418617990741503e+05, 7.224737829083139e+04, 2.616635812440238e+02, 1.100447720350601e+00, -6.405665492309184e-01
66, 2.409400045870000e-01, -5.915585896897953e-02, 9.665144807622570e-01, 3.433555537831664e+02, -1.042262856426186e+01, 2.428922252450638e+05, 7.273890778142957e+04, 2.621734781203873e+02, 1.094945451885231e+00, -6.297383820311768e-01
67, 2.275699973110000e-01, -5.869456802648413e-02, 9.717856075987343e-01, 3.435362417334135e+02, -1.326176510159843e+01, 2.440553024047372e+05, 7.329720343405020e+04, 2.627527605416191e+02, 1.088686832149086e+00, -6.174393871812283e-01
68, 2.144699990750000e-01, -5.813197420944613e-02, 9.774249021095398e-01, 3.436910023786104e+02, -1.624331088602366e+01, 2.452988904676362e+05, 7.389521935891701e+04, 2.633681714773571e+02, 1.082028652641235e+00, -6.042653731161000e-01
69, 2.016600072380000e-01, -5.746811193675738e-02, 9.832884403467201e-01, 3.437957665226335e+02, -1.937619452852507e+01, 2.465901242903884e+05, 7.451881999432870e+04, 2.640069628281665e+02, 1.075107050106194e+00, -5.905277397181827e-01
70, 1.891400069000000e-01, -5.670228146432130e-02, 9.895095535339734e-01, 3.438553394831120e+02, -2.267212519090823e+01, 2.479588894498601e+05, 7.518166123984421e+04, 2.646806981482989e+02, 1.067794764228593e+00, -5.759256538400963e-01
71, 1.769299954180000e-01, -5.583513598033686e-02, 9.964134981972723e-01, 3.438661075712493e+02, -2.615031705324492e+01, 2.494759347659998e+05, 7.591921213804706e+04, 2.654253725473635e+02, 1.059697515276557e+00, -5.596777488886746e-01
72, 1.650400012730000e-01, -5.486709202536137e-02, 1.004265247847031e+00, 3.438181867521004e+02, -2.982409338929413e+01, 2.511987012192370e+05, 7.676056313128400e+04, 2.662686663598521e+02, 1.050507939853799e+00, -5.411431758819747e-01
73, 1.534900069240000e-01, -5.379977779145956e-02, 1.012990402012113e+00, 3.436800276906490e+02, -3.370382815739109e+01, 2.531093823928761e+05, 7.769922396081699e+04, 2.672032253020419e+02, 1.040297721239143e+00, -5.204649122163258e-01
74, 1.422899961470000e-01, -5.263443049277360e-02, 1.022332260928220e+00, 3.434314528005127e+02, -3.780130055321568e+01, 2.551518799095922e+05, 7.870746347662817e+04, 2.681971732298818e+02, 1.029406836609265e+00, -4.982538622927425e-01
75, 1.314399987460000e-01, -5.137133628795417e-02, 1.032100542816616e+00, 3.430308879065926e+02, -4.213435413380405e+01, 2.572824516721196e+05, 7.976688415962795e+04, 2.692346592033389e+02, 1.018001809853678e+00, -4.749153149424599e-01
76, 1.209499984980000e-01, -5.001187382363489e-02, 1.042422293474610e+00, 3.424837523766203e+02, -4.673202147332546e+01, 2.595310088599096e+05, 8.088906369966613e+04, 2.703189320604736e+02, 1.006039485859012e+00, -4.501942190162020e-01
77, 1.108499988910000e-01, -4.856066993422563e-02, 1.053530041137112e+00, 3.417598757245182e+02, -5.162097268634101e+01, 2.619474244799351e+05, 8.210006500300762e+04, 2.714731750823436e+02, 9.932538856716628e-01, -4.235164207507750e-01
78, 1.011300012470000e-01, -4.701715290498424e-02, 1.065474512839500e+00, 3.407784022312600e+02, -5.681798687660027e+01, 2.645377542226624e+05, 8.341039812803670e+04, 2.727140255095332e+02, 9.794459805179819e-01, -3.946503884239915e-01
79, 9.181000292300000e-02, -4.538527151431038e-02, 1.078277586358837e+00, 3.394926605624528e+02, -6.236196978959190e+01, 2.673058612063866e+05, 8.482334449236823e+04, 2.740407577357364e+02, 9.646052006339747e-01, -3.635238339244249e-01
80, 8.290000259900000e-02, -4.366791468532204e-02, 1.092039146510826e+00, 3.378755321118917e+02, -6.829296973876350e+01, 2.702750643291834e+05, 8.634820422641185e+04, 2.754516945517482e+02, 9.487285090627786e-01, -3.299318796832186e-01
81, 7.440000027400000e-02, -4.186607976498817e-02, 1.106805308478782e+00, 3.358332350987370e+02, -7.464543329952522e+01, 2.734516729951469e+05, 8.799372759185548e+04, 2.769560314777220e+02, 9.316857827163252e-01, -2.936817614849785e-01
82, 6.633000075800000e-02, -3.998513962421356e-02, 1.122728044639712e+00, 3.332848786078654e+02, -8.147337317195813e+01, 2.768678547677543e+05, 8.977737609307456e+04, 2.785625199161880e+02, 9.133438744343486e-01, -2.543888104694371e-01
83, 5.869000032500000e-02, -3.802635805630503e-02, 1.139923857650631e+00, 3.301016104679609e+02, -8.882070010086206e+01, 2.805451861335071e+05, 9.171561909804461e+04, 2.802836755838865e+02, 8.935158704884970e-01, -2.116902140820598e-01
