"PointID"	"x"	"y"	"Conservative_1"	"Conservative_2"	"Conservative_3"	"Conservative_4"	"Pressure"	"Pressure_Coefficient"	"Mach"
0	9.997500181200000e-01	-3.632896519016437e-05	1.453931282286182e+00	2.633686484423963e+02	3.540895357109001e+01	3.460852688850992e+05	1.287201905573113e+05	6.035033695787793e-01	5.191523705415928e-01	
1	9.990000128750000e-01	-1.452537504052920e-04	1.424329182430975e+00	2.720266462438610e+02	3.869904583377467e+01	3.398138121936805e+05	1.253245888935202e+05	5.286998363980865e-01	5.496357160184964e-01	
2	9.977599978450000e-01	-3.251111630156300e-04	1.406109976233819e+00	2.800411901760810e+02	4.016303449157370e+01	3.361233335332873e+05	1.230652825371268e+05	4.789283629658538e-01	5.747799652161693e-01	
3	9.960200190539999e-01	-5.769983605901485e-04	1.391161838629192e+00	2.862522068628472e+02	4.107231735928388e+01	3.330926451363389e+05	1.212144077970334e+05	4.381544490199805e-01	5.951740248699978e-01	
4	9.937800168990000e-01	-9.004365425509819e-04	1.378420233388180e+00	2.910107345938956e+02	4.181428753108367e+01	3.304909549050034e+05	1.196551147639495e+05	4.038039451365275e-01	6.118233686870909e-01	
5	9.910500049590000e-01	-1.293363843462116e-03	1.367391691615318e+00	2.949886153567235e+02	4.229804480979945e+01	3.282384506470451e+05	1.183060651519082e+05	3.740850065187217e-01	6.261964562586784e-01	
6	9.878399968150000e-01	-1.753609743384430e-03	1.357295441782902e+00	2.982981875884186e+02	4.261800862265239e+01	3.261619187608274e+05	1.170854986167516e+05	3.471964906231631e-01	6.388304672659803e-01	
7	9.841300249100000e-01	-2.283176811071472e-03	1.348076349701653e+00	3.012365459878400e+02	4.284804481382823e+01	3.242655780120209e+05	1.159711914047939e+05	3.226488184412319e-01	6.503705779538459e-01	
8	9.799500107769999e-01	-2.876826092032643e-03	1.339476276917685e+00	3.038391062740235e+02	4.300116946669328e+01	3.224918494114514e+05	1.149364231020724e+05	2.998533516194437e-01	6.609820969023444e-01	
9	9.752799868580000e-01	-3.536324145770189e-03	1.331396437992130e+00	3.061983000163186e+02	4.308522739090596e+01	3.208232797209349e+05	1.139663869136904e+05	2.784839033187582e-01	6.708942045491950e-01	
10	9.701499938960000e-01	-4.256268552403566e-03	1.323735152932912e+00	3.083518977000041e+02	4.311069404206099e+01	3.192386385104487e+05	1.130491079771735e+05	2.582766728607876e-01	6.802242027772653e-01	
11	9.645400047300000e-01	-5.038225493362627e-03	1.316420640592338e+00	3.103361121697341e+02	4.308579968023253e+01	3.177235570095386e+05	1.121755137349724e+05	2.390317960014724e-01	6.890769077863839e-01	
12	9.584699869160000e-01	-5.878077433056352e-03	1.309404533864829e+00	3.121793548720426e+02	4.301400508109710e+01	3.162685599903931e+05	1.113392843306667e+05	2.206100492286727e-01	6.975300645749342e-01	
13	9.519400000570000e-01	-6.774428848839826e-03	1.302642186769162e+00	3.138961055878382e+02	4.289979896423043e+01	3.148642021732820e+05	1.105352851560701e+05	2.028983195003284e-01	7.056306094932074e-01	
14	9.449599981310000e-01	-7.724467125531491e-03	1.296106297150351e+00	3.155060970027437e+02	4.274666525491818e+01	3.135053796182852e+05	1.097597041778292e+05	1.858126294858571e-01	7.134308347436096e-01	
15	9.375399947170000e-01	-8.725349486403867e-03	1.289773001206122e+00	3.170192454040633e+02	4.255766503558240e+01	3.121871523312417e+05	1.090096882681339e+05	1.692901261000205e-01	7.209594470754875e-01	
16	9.296900033950000e-01	-9.774221272349531e-03	1.283616112708423e+00	3.184476240768913e+02	4.233531527848458e+01	3.109042585681792e+05	1.082819476220579e+05	1.532583364628030e-01	7.282536660202590e-01	
17	9.214000105860000e-01	-1.087086069705918e-02	1.277613755576708e+00	3.198001391409613e+02	4.208346906686458e+01	3.096522440265453e+05	1.075737925432004e+05	1.376580078072767e-01	7.353425440732586e-01	
18	9.126999974250000e-01	-1.200973104171110e-02	1.271755479357741e+00	3.210838056912561e+02	4.180243209227247e+01	3.084290853868458e+05	1.068838335817922e+05	1.224585311980592e-01	7.422433856473071e-01	
19	9.035800099370001e-01	-1.319055953446835e-02	1.266019714181959e+00	3.223008904857573e+02	4.149483493272857e+01	3.072299745426779e+05	1.062098348472743e+05	1.076106510008971e-01	7.489704670598910e-01	
20	8.940600156780000e-01	-1.440916392228702e-02	1.260404011494907e+00	3.234633736809005e+02	4.116199690531318e+01	3.060551026049111e+05	1.055508056075170e+05	9.309254184547951e-02	7.555507675729933e-01	
21	8.841500282290000e-01	-1.566269158090452e-02	1.254899157832562e+00	3.245721961088510e+02	4.080621414170451e+01	3.049023737686950e+05	1.049058328582118e+05	7.888409066943007e-02	7.619886691447618e-01	
22	8.738499879840000e-01	-1.694956337677533e-02	1.249478300433702e+00	3.256271012296724e+02	4.042793263032812e+01	3.037656546260010e+05	1.042722807953265e+05	6.492723192975441e-02	7.682973820499800e-01	
23	8.631799817090000e-01	-1.826569132102762e-02	1.244149875906226e+00	3.266426979902836e+02	4.002924149697776e+01	3.026478377869489e+05	1.036500119178959e+05	5.121893654382807e-02	7.745059445702787e-01	
24	8.521599769590000e-01	-1.960709133914372e-02	1.238886253371258e+00	3.276135785119420e+02	3.961106331004157e+01	3.015422736306565e+05	1.030366525294636e+05	3.770691307725368e-02	7.806164927680462e-01	
25	8.407700061800000e-01	-2.097463226217677e-02	1.233683682287558e+00	3.285477965734039e+02	3.917553240380987e+01	3.004486775888801e+05	1.024312623911189e+05	2.437044850196628e-02	7.866507925472568e-01	
26	8.290500044819999e-01	-2.236196298315981e-02	1.228526183611617e+00	3.294442302181593e+02	3.872049201374814e+01	2.993633180165374e+05	1.018323549324143e+05	1.117679435899070e-02	7.926143258436761e-01	
27	8.170099854470000e-01	-2.376642068849115e-02	1.223413342787415e+00	3.303094250476158e+02	3.824820013162577e+01	2.982865683568380e+05	1.012394213233730e+05	-1.885258640579034e-03	7.985236537983673e-01	
28	8.046399950980000e-01	-2.518763605296113e-02	1.218335520294730e+00	3.311413173568540e+02	3.775848608931096e+01	2.972160725854184e+05	1.006516696460937e+05	-1.483315608161294e-02	8.043786058629652e-01	
29	7.919700145720000e-01	-2.662062628442961e-02	1.213291502177491e+00	3.319413865649746e+02	3.725013571719705e+01	2.961516182241872e+05	1.000689159496979e+05	-2.767095031683138e-02	8.101821936327105e-01	
30	7.790099978450000e-01	-2.806276676215449e-02	1.208278315919565e+00	3.327168862793303e+02	3.672366577965098e+01	2.950930757982660e+05	9.949031897157888e+04	-4.041717397212656e-02	8.159553057259525e-01	
31	7.657799720760000e-01	-2.951033727360171e-02	1.203279337958664e+00	3.334672774291924e+02	3.617999184663601e+01	2.940366860796091e+05	9.891420923197902e+04	-5.310860491393005e-02	8.217086293019222e-01	
32	7.522799968720000e-01	-3.096181144522562e-02	1.198254822609128e+00	3.341907910910506e+02	3.561700144343425e+01	2.929734404681677e+05	9.833661573754277e+04	-6.583272228810290e-02	8.274672804308379e-01	
33	7.385200262070000e-01	-3.241453277608040e-02	1.193204744049585e+00	3.348957648464844e+02	3.503551915522688e+01	2.919039981981443e+05	9.775687079824581e+04	-7.860423499687588e-02	8.332554699441630e-01	
34	7.245299816130000e-01	-3.386376679305321e-02	1.188131629157108e+00	3.355823453935278e+02	3.443214998979625e+01	2.908289056932695e+05	9.717525321187629e+04	-9.141700125400298e-02	8.390716766750322e-01	
35	7.103199958800001e-01	-3.530689307158652e-02	1.183026915256718e+00	3.362443964980803e+02	3.380885859006973e+01	2.897457863294972e+05	9.659134330016978e+04	-1.042802663774236e-01	8.449070931893272e-01	
36	6.958900094030001e-01	-3.674225211597043e-02	1.177900878009017e+00	3.368947648234837e+02	3.316092229193612e+01	2.886579249252328e+05	9.600521192417936e+04	-1.171924693309331e-01	8.507896741877872e-01	
37	6.812700033190000e-01	-3.816515293304169e-02	1.172715370804121e+00	3.375181660703342e+02	3.248818234631258e+01	2.875556358730868e+05	9.541408730682400e+04	-1.302146710808571e-01	8.567088102961719e-01	
38	6.664699912070000e-01	-3.957289370556494e-02	1.167478330665402e+00	3.381269331269227e+02	3.178892034595701e+01	2.864416906626761e+05	9.481778989724515e+04	-1.433508270495147e-01	8.626950419223022e-01	
39	6.514999866490000e-01	-4.096270419333766e-02	1.162166024466205e+00	3.387188183391689e+02	3.105924423132361e+01	2.853106531709434e+05	9.421400539896423e+04	-1.566519201172801e-01	8.687637096398921e-01	
40	6.363800168040000e-01	-4.233084266562091e-02	1.156775032923753e+00	3.392920040364190e+02	3.030080275120979e+01	2.841616647041581e+05	9.360247585373140e+04	-1.701236329850154e-01	8.749162564229461e-01	
41	6.211299896240000e-01	-4.367359094194759e-02	1.151290036585182e+00	3.398502823484753e+02	2.950598615328305e+01	2.829916442480670e+05	9.298127948291297e+04	-1.838083015466284e-01	8.811790451004320e-01	
42	6.057599782940000e-01	-4.498807223669178e-02	1.145703840454606e+00	3.403888521289433e+02	2.867806362749806e+01	2.817986758648939e+05	9.234998254869539e+04	-1.977154808454189e-01	8.875495941620190e-01	
43	5.902799963950000e-01	-4.627132533375768e-02	1.140006087363613e+00	3.409119891302248e+02	2.780807355497080e+01	2.805808313097513e+05	9.170713102113885e+04	-2.118772024880413e-01	8.940527543652546e-01	
44	5.747100114820000e-01	-4.751950934859488e-02	1.134196592970397e+00	3.414140876767706e+02	2.689830911236956e+01	2.793376750216887e+05	9.105310022950379e+04	-2.262851981445889e-01	9.006780215687419e-01	
45	5.590599775310000e-01	-4.872955796694115e-02	1.128269402378304e+00	3.418985891302973e+02	2.594107141556870e+01	2.780682082772329e+05	9.038694425930633e+04	-2.409603058733758e-01	9.074454393207622e-01	
46	5.433599948880000e-01	-4.989683951066199e-02	1.122231761509856e+00	3.423588809916039e+02	2.493951404563786e+01	2.767735499586553e+05	8.970991047107319e+04	-2.558750468992723e-01	9.143350077291772e-01	
47	5.276100039480000e-01	-5.101897737545535e-02	1.116108538345195e+00	3.427938335960328e+02	2.388584916265190e+01	2.754590859033719e+05	8.902473411375190e+04	-2.709691649538283e-01	9.213235816655732e-01	
48	5.118399858470000e-01	-5.209138375948307e-02	1.109944095940256e+00	3.431936458296006e+02	2.277457393890700e+01	2.741337203668514e+05	8.833699839043489e+04	-2.861196646568042e-01	9.283409544642848e-01	
49	4.960500001910000e-01	-5.311153541819326e-02	1.103746108530588e+00	3.435703444310668e+02	2.159217315931920e+01	2.728001607309041e+05	8.764650210295711e+04	-3.013309783106626e-01	9.354180314312276e-01	
50	4.802699983120000e-01	-5.407492053959814e-02	1.097350667754216e+00	3.439340945925159e+02	2.034419703909055e+01	2.714234837191482e+05	8.693464148640994e+04	-3.170129382465824e-01	9.427586182910440e-01	
51	4.645099937920000e-01	-5.497835513414191e-02	1.090401401198603e+00	3.442997203416738e+02	1.906090989952520e+01	2.699273137209712e+05	8.616141284784199e+04	-3.340468073067131e-01	9.507964660787799e-01	
52	4.487800002100000e-01	-5.581859897363720e-02	1.082848363290227e+00	3.446334758764390e+02	1.777674594781279e+01	2.682982322241210e+05	8.532392411440815e+04	-3.524962965173913e-01	9.595137393782567e-01	
53	4.331099987030000e-01	-5.659141825851464e-02	1.075887176689215e+00	3.448637613084033e+02	1.644154148999088e+01	2.667911221414692e+05	8.455774286342578e+04	-3.693749148905180e-01	9.674231844441802e-01	
54	4.174999892710000e-01	-5.729416860686566e-02	1.071733175724429e+00	3.449295738698457e+02	1.493749503053938e+01	2.658832597326490e+05	8.410904713442213e+04	-3.792594741456476e-01	9.718708977338559e-01	
55	4.019699990750000e-01	-5.792324246601335e-02	1.071386232622590e+00	3.448664795205071e+02	1.312434818258953e+01	2.657948888406455e+05	8.408411799281037e+04	-3.798086515982348e-01	9.717872838360421e-01	
56	3.865399956700000e-01	-5.847520956655861e-02	1.071453573647779e+00	3.448458537628253e+02	1.102940980021038e+01	2.658009554885423e+05	8.410004271161111e+04	-3.794578374129589e-01	9.714002727215620e-01	
57	3.712300062180000e-01	-5.894684318665333e-02	1.063129657299899e+00	3.451266555589098e+02	9.003251939275573e+00	2.640041526462885e+05	8.317853211947625e+04	-3.997582892857969e-01	9.812133885476352e-01	
58	3.560400009160000e-01	-5.933561549045978e-02	1.037970290181068e+00	3.456011829025389e+02	7.552019719662173e+00	2.585654602803756e+05	8.040101436386489e+04	-4.609457200163704e-01	1.011327089980384e+00	
59	3.409900069240000e-01	-5.963847719943702e-02	1.000470041021466e+00	3.454161147118792e+02	6.512668926585883e+00	2.504141932146797e+05	7.630595090419275e+04	-5.511580728518392e-01	1.056755481946264e+00	
60	3.261100053790000e-01	-5.985254444802346e-02	9.705934576684400e-01	3.442377879666991e+02	4.639814211053511e+00	2.438470456039326e+05	7.311640294427008e+04	-6.214223382972470e-01	1.092214358477616e+00	
61	3.113999962810000e-01	-5.997565198183213e-02	9.584477985847744e-01	3.433720547969562e+02	2.210380197705029e+00	2.411437794527991e+05	7.185330193887159e+04	-6.492478688874292e-01	1.105865552988614e+00	
62	2.968699932100000e-01	-6.000550062925582e-02	9.583581622863596e-01	3.431954949296577e+02	-2.671579890225700e-01	2.411057271732950e+05	7.186208197697489e+04	-6.490544487113845e-01	1.105258519844671e+00	
63	2.825500071050000e-01	-5.994005483718394e-02	9.623704687061131e-01	3.432896157224631e+02	-2.698318263688703e+00	2.419791071330138e+05	7.229898747428844e+04	-6.394296228039097e-01	1.099949667240341e+00	
64	2.684499919410000e-01	-5.977765596976551e-02	9.667525720116833e-01	3.434928250831849e+02	-5.157165992910160e+00	2.429454616158865e+05	7.276368177120120e+04	-6.291926225018241e-01	1.094681035284603e+00	
65	2.545700073240000e-01	-5.951657836311273e-02	9.708587878847389e-01	3.436735583080933e+02	-7.706990441105687e+00	2.438526289750750e+05	7.319746756803829e+04	-6.196365221520590e-01	1.089846203120052e+00	
66	2.409400045870000e-01	-5.915585896897953e-02	9.752089638153831e-01	3.438346663778242e+02	-1.040398655027160e+01	2.448131750949842e+05	7.365754381112744e+04	-6.095012554384882e-01	1.084743137721638e+00	
67	2.275699973110000e-01	-5.869456802648413e-02	9.800926286094341e-01	3.439676199244454e+02	-1.324443158891864e+01	2.458890945696966e+05	7.417646637696895e+04	-5.980696314685561e-01	1.078968141290918e+00	
68	2.144699990750000e-01	-5.813197420944613e-02	9.854816414314571e-01	3.440790296553149e+02	-1.623032804574877e+01	2.470755718871417e+05	7.474986090048128e+04	-5.854380154805683e-01	1.072623600646338e+00	
69	2.016600072380000e-01	-5.746811193675738e-02	9.912264277871660e-01	3.441446513335633e+02	-1.936336389384436e+01	2.483385059610840e+05	7.536298244643412e+04	-5.719312315737434e-01	1.065854404550389e+00	
70	1.891400069000000e-01	-5.670228146432130e-02	9.973602490827470e-01	3.441655473589809e+02	-2.265668629977903e+01	2.496858661706613e+05	7.601872368153288e+04	-5.574855556392777e-01	1.058658958548173e+00	
71	1.769299954180000e-01	-5.583513598033686e-02	1.004114354434049e+00	3.441276969370822e+02	-2.613257548819327e+01	2.511671458123301e+05	7.674310957561775e+04	-5.415276696358572e-01	1.050734388301698e+00	
72	1.650400012730000e-01	-5.486709202536137e-02	1.011754970404803e+00	3.440246553752099e+02	-2.980839359403039e+01	2.528404624748430e+05	7.756496323710900e+04	-5.234226138242175e-01	1.041787724170741e+00	
73	1.534900069240000e-01	-5.379977779145956e-02	1.020280868751385e+00	3.438292324242036e+02	-3.369059050218172e+01	2.547042309926003e+05	7.848546874661194e+04	-5.031443034566120e-01	1.031808825482733e+00	
74	1.422899961470000e-01	-5.263443049277360e-02	1.029500090771130e+00	3.435262483988004e+02	-3.778694662689236e+01	2.567168021104517e+05	7.948358803340553e+04	-4.811561974946792e-01	1.021070115209270e+00	
75	1.314399987460000e-01	-5.137133628795417e-02	1.039202576878671e+00	3.430678674681830e+02	-4.211480958137046e+01	2.588295555889717e+05	8.053934289935041e+04	-4.578984063975889e-01	1.009740662513286e+00	
76	1.209499984980000e-01	-5.001187382363489e-02	1.049468312674042e+00	3.424578936012998e+02	-4.670865999518234e+01	2.610621349786057e+05	8.165921040492879e+04	-4.332282435204789e-01	9.978341481156529e-01	
77	1.108499988910000e-01	-4.856066993422563e-02	1.060524118445742e+00	3.416681514228428e+02	-5.158874817818016e+01	2.634633519926296e+05	8.286845078793453e+04	-4.065892375151005e-01	9.851005863939849e-01	
78	1.011300012470000e-01	-4.701715290498424e-02	1.072412067482327e+00	3.406150596504779e+02	-5.677519643019187e+01	2.660372227659364e+05	8.417678765152484e+04	-3.777671819039504e-01	9.713453463530963e-01	
79	9.181000292300000e-02	-4.538527151431038e-02	1.085152026173693e+00	3.392486325821771e+02	-6.230794407308527e+01	2.687869217567660e+05	8.558753422607858e+04	-3.466890877551332e-01	9.565499589622166e-01	
80	8.290000259900000e-02	-4.366791468532204e-02	1.098856688228254e+00	3.375437621658760e+02	-6.822394443608394e+01	2.717387485872910e+05	8.711119290214716e+04	-3.131235922652718e-01	9.407041367826153e-01	
81	7.440000027400000e-02	-4.186607976498817e-02	1.113567101564538e+00	3.354040682309229e+02	-7.455802022644683e+01	2.748977618741771e+05	8.875610994135143e+04	-2.768868311534791e-01	9.236776986545634e-01	
82	6.633000075800000e-02	-3.998513962421356e-02	1.129435844455567e+00	3.327475130030076e+02	-8.136120356499023e+01	2.782962051119678e+05	9.053986882275088e+04	-2.375914485136477e-01	9.053350479632598e-01	
83	5.869000032500000e-02	-3.802635805630503e-02	1.146572202810318e+00	3.294426973125988e+02	-8.867820032344648e+01	2.819539944848394e+05	9.247824249892482e+04	-1.948899735001228e-01	8.854929499279461e-01	
84	5.149000138000000e-02	-3.599337852580232e-02	1.165173249644148e+00	3.253295042396777e+02	-9.655082200075324e+01	2.859099765922389e+05	9.459674184483364e+04	-1.482204133438714e-01	8.638851512945876e-01	
85	4.473999887700000e-02	-3.389028465845557e-02	1.185532991321945e+00	3.201804141579723e+02	-1.050241905498852e+02	2.902219471245868e+05	9.693358383760335e+04	-9.674086572549104e-02	8.400925595202102e-01	
86	3.844000026600000e-02	-3.171811260404538e-02	1.207882039561306e+00	3.137089673032982e+02	-1.141344648388282e+02	2.949329402398562e+05	9.952104441741834e+04	-3.974030661991259e-02	8.137421169130551e-01	
87	3.260000050100000e-02	-2.948109446637338e-02	1.232613167949330e+00	3.055903375026309e+02	-1.238877729145690e+02	3.001236639325494e+05	1.024066823414238e+05	2.382896138274660e-02	7.844050574814867e-01	
88	2.723000012300000e-02	-2.718419978786347e-02	1.260262551206798e+00	2.953428030744847e+02	-1.341949484705012e+02	3.059002178062839e+05	1.056594947860796e+05	9.548691414824168e-02	7.513333332343054e-01	
89	2.232000045500000e-02	-2.482329437156798e-02	1.291184460121519e+00	2.823043545862843e+02	-1.448837295198665e+02	3.123241792192228e+05	1.093335974151582e+05	1.764256947049415e-01	7.137593538017342e-01	
90	1.789999939500000e-02	-2.241364555514381e-02	1.326043146763114e+00	2.657072378548629e+02	-1.555869837972889e+02	3.195291367329580e+05	1.135123242367007e+05	2.684811126833003e-01	6.707448203209653e-01	
91	1.394999958600000e-02	-1.994492353858276e-02	1.365496820360555e+00	2.446031439364352e+02	-1.654651684542110e+02	3.276421447616865e+05	1.182835700149025e+05	3.735894490611560e-01	6.210264860210701e-01	
92	1.049000024800000e-02	-1.742916196961543e-02	1.409652681543979e+00	2.177884196260356e+02	-1.731475504314651e+02	3.366633276475451e+05	1.236822185580246e+05	4.925191779903907e-01	5.631577524242404e-01	
93	7.519999985000000e-03	-1.486756313872443e-02	1.458515937981189e+00	1.844623662432033e+02	-1.762624388158339e+02	3.465920190780172e+05	1.297106368294741e+05	6.253224425794416e-01	4.957534953783343e-01	
94	5.040000193000000e-03	-1.226032473458219e-02	1.510800754862785e+00	1.442553564029218e+02	-1.710278423815501e+02	3.571457855180633e+05	1.362313476056407e+05	7.689706832161524e-01	4.168116498017317e-01	
95	3.049999941000000e-03	-9.605565346412577e-03	1.564095420822055e+00	9.897527578311460e+01	-1.527161596980040e+02	3.678687254585573e+05	1.429126679074465e+05	9.161570773731644e-01	3.253143458424844e-01	
96	1.560000004000000e-03	-6.917517506923035e-03	1.610166016900994e+00	5.414209294778080e+01	-1.173526600771448e+02	3.770722913322744e+05	1.487542220131365e+05	1.044843810870619e+00	2.231841833715433e-01	
