"PointID","x","y","Density","Momentum_x","Momentum_y","Energy","Pressure","Temperature"
0, 9.997500181200000e-01, -3.632896519016437e-05, 1.603517871616792e+00, 2.553835245725701e+02, 3.711002122018917e+01, 3.798371000676188e+05, 1.436283659331950e+05, 3.120302939343180e+02
1, 9.990000128750000e-01, -1.452537504052920e-04, 1.434855934889298e+00, 2.577041061335310e+02, 3.742054129699680e+01, 3.416127259518619e+05, 1.271930329887565e+05, 3.088057443002901e+02
2, 9.977599978450000e-01, -3.251111630156300e-04, 1.419983065920197e+00, 2.755237474148797e+02, 3.992944856506760e+01, 3.389744049872871e+05, 1.246730548717885e+05, 3.058579555513196e+02
3, 9.960200190539999e-01, -5.769983605901485e-04, 1.398908938916548e+00, 2.845021513824395e+02, 4.112551163648219e+01, 3.347873993039157e+05, 1.221010696891532e+05, 3.040607544027869e+02
4, 9.937800168990000e-01, -9.004365425509819e-04, 1.382218565544072e+00, 2.894137958055236e+02, 4.171717328968921e+01, 3.312585945453456e+05, 1.201319258328122e+05, 3.027694574577524e+02
5, 9.910500049590000e-01, -1.293363843462116e-03, 1.370292660771723e+00, 2.941047886713250e+02, 4.224453621395038e+01, 3.288337065453797e+05, 1.186483187277436e+05, 3.016328254127142e+02
6, 9.878399968150000e-01, -1.753609743384430e-03, 1.360084427253476e+00, 2.979819879460431e+02, 4.262351713117829e+01, 3.267878600908727e+05, 1.173909668695119e+05, 3.006762719814956e+02
7, 9.841300249100000e-01, -2.283176811071472e-03, 1.350032465010945e+00, 3.008474459622778e+02, 4.282822952548277e+01, 3.247059174426853e+05, 1.162021858881601e+05, 2.998474988975937e+02
8, 9.799500107769999e-01, -2.876826092032643e-03, 1.341046758946756e+00, 3.034717855065535e+02, 4.297022237821213e+01, 3.228450100018867e+05, 1.151278191980190e+05, 2.990657662042075e+02
9, 9.752799868580000e-01, -3.536324145770189e-03, 1.332891733917262e+00, 3.059303214460619e+02, 4.306140951223146e+01, 3.211655507889831e+05, 1.141443299263779e+05, 2.983251128782156e+02
10, 9.701499938960000e-01, -4.256268552403566e-03, 1.325104565889449e+00, 3.081458796269212e+02, 4.309051330394929e+01, 3.195558816388080e+05, 1.132105736367309e+05, 2.976234768650403e+02
11, 9.645400047300000e-01, -5.038225493362627e-03, 1.317635399718446e+00, 3.101655109075038e+02, 4.306641934749389e+01, 3.180077700611607e+05, 1.123192698014050e+05, 2.969541250943436e+02
12, 9.584699869160000e-01, -5.878077433056352e-03, 1.310502348861696e+00, 3.120369847253326e+02, 4.299591015774989e+01, 3.165269857258208e+05, 1.114691612802159e+05, 2.963106594499071e+02
13, 9.519400000570000e-01, -6.774428848839826e-03, 1.303624995945602e+00, 3.137795629613131e+02, 4.288302999143315e+01, 3.150972790352083e+05, 1.106515772648079e+05, 2.956890725419507e+02
14, 9.449599981310000e-01, -7.724467125531491e-03, 1.297000041605167e+00, 3.154119544175923e+02, 4.273161126622417e+01, 3.137188068067029e+05, 1.098652114904392e+05, 2.950873221969848e+02
15, 9.375399947170000e-01, -8.725349486403867e-03, 1.290572224958729e+00, 3.169431858421656e+02, 4.254413680212735e+01, 3.123797566354055e+05, 1.091042058495467e+05, 2.945028646750168e+02
16, 9.296900033950000e-01, -9.774221272349531e-03, 1.284333743645674e+00, 3.183859529113167e+02, 4.232322582535602e+01, 3.110783166199359e+05, 1.083668308008619e+05, 2.939333232222127e+02
17, 9.214000105860000e-01, -1.087086069705918e-02, 1.278255882562368e+00, 3.197487298417349e+02, 4.207165096698322e+01, 3.098086145733385e+05, 1.076498224540225e+05, 2.933768648104688e+02
18, 9.126999974250000e-01, -1.200973104171110e-02, 1.272324482907998e+00, 3.210421514363140e+02, 4.179108557586456e+01, 3.085684597037528e+05, 1.069513104834785e+05, 2.928320254737391e+02
19, 9.035800099370001e-01, -1.319055953446835e-02, 1.266519960845473e+00, 3.222677569125105e+02, 4.148381919871708e+01, 3.073530887866788e+05, 1.062691864882584e+05, 2.922978779606590e+02
20, 8.940600156780000e-01, -1.440916392228702e-02, 1.260849889938275e+00, 3.234375099322796e+02, 4.115184423686660e+01, 3.061653345824066e+05, 1.056036511593919e+05, 2.917735330736357e+02
21, 8.841500282290000e-01, -1.566269158090452e-02, 1.255288443041787e+00, 3.245523184308555e+02, 4.079620506961727e+01, 3.049993030797181e+05, 1.049520795778863e+05, 2.912580001382967e+02
22, 8.738499879840000e-01, -1.694956337677533e-02, 1.249817876879138e+00, 3.256122966962612e+02, 4.041807703630503e+01, 3.038507181598121e+05, 1.043126590306094e+05, 2.907506063384907e+02
23, 8.631799817090000e-01, -1.826569132102762e-02, 1.244450746224633e+00, 3.266313738670123e+02, 4.001995010082963e+01, 3.027236511340328e+05, 1.036858547056395e+05, 2.902499441542112e+02
24, 8.521599769590000e-01, -1.960709133914372e-02, 1.239151735992976e+00, 3.276043480499567e+02, 3.960122603944682e+01, 3.016094037828267e+05, 1.030683729949836e+05, 2.897552250122490e+02
25, 8.407700061800000e-01, -2.097463226217677e-02, 1.233909911376049e+00, 3.285416847469243e+02, 3.916456076808210e+01, 3.005064911443357e+05, 1.024584320860550e+05, 2.892641403967874e+02
26, 8.290500044819999e-01, -2.236196298315981e-02, 1.228715369661955e+00, 3.294411073965737e+02, 3.870923798590392e+01, 2.994123200157203e+05, 1.018551905577525e+05, 2.887767471863127e+02
27, 8.170099854470000e-01, -2.376642068849115e-02, 1.223574922973544e+00, 3.303068072075069e+02, 3.823604505066329e+01, 2.983288881271748e+05, 1.012591708054551e+05, 2.882930311594775e+02
28, 8.046399950980000e-01, -2.518763605296113e-02, 1.218477530329736e+00, 3.311388389421584e+02, 3.774532992158478e+01, 2.972534852119623e+05, 1.006691923704388e+05, 2.878123363166964e+02
29, 7.919700145720000e-01, -2.662062628442961e-02, 1.213416544430610e+00, 3.319402849153254e+02, 3.723662964952590e+01, 2.961847727133596e+05, 1.000843593714527e+05, 2.873337539683503e+02
30, 7.790099978450000e-01, -2.806276676215449e-02, 1.208385346083941e+00, 3.327180354402576e+02, 3.671094728968416e+01, 2.951218532618204e+05, 9.950350072873943e+04, 2.868555491674391e+02
31, 7.657799720760000e-01, -2.951033727360171e-02, 1.203368517930954e+00, 3.334693279975185e+02, 3.616703021014215e+01, 2.940611298308917e+05, 9.892530115470711e+04, 2.863776235755575e+02
32, 7.522799968720000e-01, -3.096181144522562e-02, 1.198331290934773e+00, 3.341935842503244e+02, 3.560409974556288e+01, 2.929947674578713e+05, 9.834619134703916e+04, 2.858979169878902e+02
33, 7.385200262070000e-01, -3.241453277608040e-02, 1.193269439496485e+00, 3.348996366395339e+02, 3.502217441640578e+01, 2.919224330663697e+05, 9.776499716394312e+04, 2.854139651875976e+02
34, 7.245299816130000e-01, -3.386376679305321e-02, 1.188188193489567e+00, 3.355875867471755e+02, 3.441990496183858e+01, 2.908453487652579e+05, 9.718229216475782e+04, 2.849261113173357e+02
35, 7.103199958800001e-01, -3.530689307158652e-02, 1.183067283422852e+00, 3.362497321362241e+02, 3.379514021529126e+01, 2.897583670537609e+05, 9.659658456645612e+04, 2.844347616704216e+02
36, 6.958900094030001e-01, -3.674225211597043e-02, 1.177937446459072e+00, 3.369016584334342e+02, 3.314821114238517e+01, 2.886695932781816e+05, 9.600983778818497e+04, 2.839382184661969e+02
37, 6.812700033190000e-01, -3.816515293304169e-02, 1.172744324732901e+00, 3.375248703906497e+02, 3.247499393133352e+01, 2.875653967122770e+05, 9.541785004709208e+04, 2.834370584524833e+02
38, 6.664699912070000e-01, -3.957289370556494e-02, 1.167501603382208e+00, 3.381342169561545e+02, 3.177530015347133e+01, 2.864500565662171e+05, 9.482083462327611e+04, 2.829284584709711e+02
39, 6.514999866490000e-01, -4.096270419333766e-02, 1.162186449595038e+00, 3.387269707317857e+02, 3.104671511265837e+01, 2.853182982124260e+05, 9.421659682546587e+04, 2.824112225953698e+02
40, 6.363800168040000e-01, -4.233084266562091e-02, 1.156785012846359e+00, 3.392996172119942e+02, 3.028669012194250e+01, 2.841667893144074e+05, 9.360395340604387e+04, 2.818849464133197e+02
41, 6.211299896240000e-01, -4.367359094194759e-02, 1.151298995170232e+00, 3.398597710605935e+02, 2.949342039275725e+01, 2.829965463986669e+05, 9.298240603430672e+04, 2.813474605685691e+02
42, 6.057599782940000e-01, -4.498807223669178e-02, 1.145700235963368e+00, 3.403978724473308e+02, 2.866345251802104e+01, 2.818006389546765e+05, 9.234977796233846e+04, 2.807987682340089e+02
43, 5.902799963950000e-01, -4.627132533375768e-02, 1.140001578662709e+00, 3.409227736921391e+02, 2.779485097968441e+01, 2.805826851321761e+05, 9.170663030878833e+04, 2.802370989589423e+02
44, 5.747100114820000e-01, -4.751950934859488e-02, 1.134185346354917e+00, 3.414246763144046e+02, 2.688356782691999e+01, 2.793379746305490e+05, 9.105187981079427e+04, 2.796631402095125e+02
45, 5.590599775310000e-01, -4.872955796694115e-02, 1.128267306776805e+00, 3.419103925173988e+02, 2.592782633182252e+01, 2.780706123714868e+05, 9.038655823419741e+04, 2.790758080055836e+02
46, 5.433599948880000e-01, -4.989683951066199e-02, 1.122219514076684e+00, 3.423692661102228e+02, 2.492306094638329e+01, 2.767736643626937e+05, 8.970860595504935e+04, 2.784752720696266e+02
47, 5.276100039480000e-01, -5.101897737545535e-02, 1.116074691307107e+00, 3.428065491634683e+02, 2.386754915075353e+01, 2.754548407723142e+05, 8.902098875378828e+04, 2.778622185920559e+02
48, 5.118399858470000e-01, -5.209138375948307e-02, 1.109880624416218e+00, 3.432114887278494e+02, 2.275626700166011e+01, 2.741238771361331e+05, 8.832978527248028e+04, 2.772434216653209e+02
49, 4.960500001910000e-01, -5.311153541819326e-02, 1.103740641904662e+00, 3.435993380750226e+02, 2.158813128249144e+01, 2.728046562634158e+05, 8.764461539895745e+04, 2.766231678435115e+02
50, 4.802699983120000e-01, -5.407492053959814e-02, 1.097540968388244e+00, 3.439635692347131e+02, 2.035845780918524e+01, 2.714712312574580e+05, 8.695369121817980e+04, 2.759927206856253e+02
51, 4.645099937920000e-01, -5.497835513414191e-02, 1.090754730703950e+00, 3.443006870644273e+02, 1.906431878091681e+01, 2.700078963188878e+05, 8.620056477911865e+04, 2.753045260754700e+02
52, 4.487800002100000e-01, -5.581859897363720e-02, 1.082922373054062e+00, 3.445800786327034e+02, 1.770134436793459e+01, 2.683114088522313e+05, 8.533798885277141e+04, 2.745209054909421e+02
53, 4.331099987030000e-01, -5.659141825851464e-02, 1.075226312261662e+00, 3.447856883711082e+02, 1.626489761377964e+01, 2.666398787231396e+05, 8.449471595376761e+04, 2.737537090026939e+02
54, 4.174999892710000e-01, -5.729416860686566e-02, 1.070507542964817e+00, 3.449292634358115e+02, 1.475285288861767e+01, 2.656158433896409e+05, 8.397767718133533e+04, 2.732778746830317e+02
55, 4.019699990750000e-01, -5.792324246601335e-02, 1.070829356495333e+00, 3.450835955323902e+02, 1.316471820180858e+01, 2.656954912545772e+05, 8.400462004681049e+04, 2.732833975932981e+02
56, 3.865399956700000e-01, -5.847520956655861e-02, 1.073038927455761e+00, 3.452649437511563e+02, 1.149720103139224e+01, 2.661915162185480e+05, 8.423322575602152e+04, 2.734628277781004e+02
57, 3.712300062180000e-01, -5.894684318665333e-02, 1.066417654074139e+00, 3.454428943728999e+02, 9.744625931433381e+00, 2.647586819483616e+05, 8.350591577135317e+04, 2.727848598587145e+02
58, 3.560400009160000e-01, -5.933561549045978e-02, 1.039607384589587e+00, 3.453721646285715e+02, 7.898636376274992e+00, 2.589051070437330e+05, 8.060254439031646e+04, 2.700907687670959e+02
59, 3.409900069240000e-01, -5.963847719943702e-02, 9.981662285356248e-01, 3.446608457031693e+02, 5.952364556643021e+00, 2.498431350489663e+05, 7.612828797613192e+04, 2.656889768844842e+02
60, 3.261100053790000e-01, -5.985254444802346e-02, 9.677109858567295e-01, 3.437240509111153e+02, 3.916525750596652e+00, 2.431744407164369e+05, 7.284893905817607e+04, 2.622454157915019e+02
61, 3.113999962810000e-01, -5.997565198183213e-02, 9.569564233114599e-01, 3.431694800221008e+02, 1.795021199767746e+00, 2.408032224367060e+05, 7.170814855346666e+04, 2.610397789104552e+02
62, 2.968699932100000e-01, -6.000550062925582e-02, 9.579717039161884e-01, 3.431259162104224e+02, -4.234959713596696e-01, 2.410169697507721e+05, 7.182661016796523e+04, 2.611939026865271e+02
63, 2.825500071050000e-01, -5.994005483718394e-02, 9.623726924233367e-01, 3.432560863273329e+02, -2.752048810535281e+00, 2.419775268502579e+05, 7.230313499277676e+04, 2.617243815820792e+02
64, 2.684499919410000e-01, -5.977765596976551e-02, 9.667071602535535e-01, 3.434544286592864e+02, -5.198244030037119e+00, 2.429327204498060e+05, 7.276280735077737e+04, 2.622073472012225e+02
65, 2.545700073240000e-01, -5.951657836311273e-02, 9.706738580754152e-01, 3.436208424430804e+02, -7.766735282063697e+00, 2.438081588668441e+05, 7.318231636753470e+04, 2.626413871598511e+02
66, 2.409400045870000e-01, -5.915585896897953e-02, 9.750039980946021e-01, 3.437891043459459e+02, -1.046660151870454e+01, 2.447651229263078e+05, 7.363937985521212e+04, 2.631080108355985e+02
67, 2.275699973110000e-01, -5.869456802648413e-02, 9.799125130864008e-01, 3.439270227684639e+02, -1.330344205943854e+01, 2.458467941928417e+05, 7.416048197160622e+04, 2.636425997248860e+02
68, 2.144699990750000e-01, -5.813197420944613e-02, 9.853244519302746e-01, 3.440398407506373e+02, -1.628525114030555e+01, 2.470381986699406e+05, 7.473618121845437e+04, 2.642299167222877e+02
69, 2.016600072380000e-01, -5.746811193675738e-02, 9.910504107771054e-01, 3.441016899719791e+02, -1.942206919210062e+01, 2.482964588684190e+05, 7.534741345923168e+04, 2.648518115469510e+02
70, 1.891400069000000e-01, -5.670228146432130e-02, 9.971459802197470e-01, 3.441198769635262e+02, -2.272299664439561e+01, 2.496351554518942e+05, 7.599901454336294e+04, 2.655091934401466e+02
71, 1.769299954180000e-01, -5.583513598033686e-02, 1.003892314877715e+00, 3.440886829865009e+02, -2.620197782218272e+01, 2.511152182545203e+05, 7.672171694129099e+04, 2.662327811702737e+02
72, 1.650400012730000e-01, -5.486709202536137e-02, 1.011573791655080e+00, 3.439987206647395e+02, -2.987029994969935e+01, 2.527984840971742e+05, 7.754674760520969e+04, 2.670523254853917e+02
73, 1.534900069240000e-01, -5.379977779145956e-02, 1.020150979801724e+00, 3.438159758007794e+02, -3.374167710865158e+01, 2.546742152852998e+05, 7.847159537011202e+04, 2.679651873647136e+02
74, 1.422899961470000e-01, -5.263443049277360e-02, 1.029392177660569e+00, 3.435188856205788e+02, -3.783281728418542e+01, 2.566918148098322e+05, 7.947146957292806e+04, 2.689432975819249e+02
75, 1.314399987460000e-01, -5.137133628795417e-02, 1.039105930856868e+00, 3.430682677567213e+02, -4.216094808924999e+01, 2.588073651261940e+05, 8.052752694304132e+04, 2.699696126914172e+02
76, 1.209499984980000e-01, -5.001187382363489e-02, 1.049401031732939e+00, 3.424713598275018e+02, -4.674946210839069e+01, 2.610471767426178e+05, 8.164928292329953e+04, 2.710448958950349e+02
77, 1.108499988910000e-01, -4.856066993422563e-02, 1.060470690522051e+00, 3.416895936671970e+02, -5.162783231731857e+01, 2.634518449481764e+05, 8.285918928253994e+04, 2.721901187808821e+02
78, 1.011300012470000e-01, -4.701715290498424e-02, 1.072385622654943e+00, 3.406504949551750e+02, -5.681194339806294e+01, 2.660324057662730e+05, 8.416903174530143e+04, 2.734208906809780e+02
79, 9.181000292300000e-02, -4.538527151431038e-02, 1.085179451992780e+00, 3.393067853779186e+02, -6.233775318049019e+01, 2.687950839960937e+05, 8.558339599420820e+04, 2.747377258751444e+02
80, 8.290000259900000e-02, -4.366791468532204e-02, 1.098947158881053e+00, 3.376278288712367e+02, -6.824668203152874e+01, 2.717620083546973e+05, 8.711137922175521e+04, 2.761394303777070e+02
81, 7.440000027400000e-02, -4.186607976498817e-02, 1.113731430431038e+00, 3.355171637443506e+02, -7.457037474586146e+01, 2.749388032237322e+05, 8.876169814883287e+04, 2.776358037038880e+02
82, 6.633000075800000e-02, -3.998513962421356e-02, 1.129680361007104e+00, 3.328957684793171e+02, -8.136368738277199e+01, 2.783564915823753e+05, 9.055093797452044e+04, 2.792336285176282e+02
83, 5.869000032500000e-02, -3.802635805630503e-02, 1.146916868503675e+00, 3.296363080912268e+02, -8.866751733516945e+01, 2.820384876358323e+05, 9.249621980418295e+04, 2.809456998120310e+02
84, 5.149000138000000e-02, -3.599337852580232e-02, 1.165621695613586e+00, 3.255727366740055e+02, -9.652962435662648e+01, 2.860199502834352e+05, 9.462187357850380e+04, 2.827901420839243e+02
85, 4.473999887700000e-02, -3.389028465845557e-02, 1.186139880036777e+00, 3.204906223974001e+02, -1.049944970303664e+02, 2.903706384015011e+05, 9.697040199514307e+04, 2.847958348485325e+02
86, 3.844000026600000e-02, -3.171811260404538e-02, 1.208772379456537e+00, 3.141119889336555e+02, -1.140836020420237e+02, 2.951499855205921e+05, 9.958150946705640e+04, 2.869885186694240e+02
87, 3.260000050100000e-02, -2.948109446637338e-02, 1.233854958591679e+00, 3.061040429070869e+02, -1.238042248531499e+02, 3.004246156646676e+05, 1.024972388955491e+05, 2.893865890790578e+02
88, 2.723000012300000e-02, -2.718419978786347e-02, 1.261797514887279e+00, 2.959602782997960e+02, -1.340974133172727e+02, 3.062716719270563e+05, 1.057746680545336e+05, 2.920265573531348e+02
89, 2.232000045500000e-02, -2.482329437156798e-02, 1.293147521300080e+00, 2.830633150340961e+02, -1.447338518427911e+02, 3.127974237411654e+05, 1.094869203261242e+05, 2.949473602377174e+02
90, 1.789999939500000e-02, -2.241364555514381e-02, 1.328405926167215e+00, 2.665710577717961e+02, -1.553680906580973e+02, 3.200942793213667e+05, 1.137048379343155e+05, 2.981799821839318e+02
91, 1.394999958600000e-02, -1.994492353858276e-02, 1.368213570173717e+00, 2.455410175508196e+02, -1.651679288249592e+02, 3.282864271956236e+05, 1.185138155106353e+05, 3.017487169237273e+02
92, 1.049000024800000e-02, -1.742916196961543e-02, 1.412709365815102e+00, 2.187491507910093e+02, -1.727320210749096e+02, 3.373807200046249e+05, 1.239539122628193e+05, 3.056594022899466e+02
93, 7.519999985000000e-03, -1.486756313872443e-02, 1.461485478313052e+00, 1.852925236079163e+02, -1.757328941628483e+02, 3.472798861200680e+05, 1.299874224751037e+05, 3.098397781724417e+02
94, 5.040000193000000e-03, -1.226032473458219e-02, 1.513075301456325e+00, 1.448220492198807e+02, -1.704810960555062e+02, 3.576640024763652e+05, 1.364516234833629e+05, 3.141582798747209e+02
95, 3.049999941000000e-03, -9.605565346412577e-03, 1.565552440116399e+00, 9.913899907555920e+01, -1.522064759471105e+02, 3.681915650070289e+05, 1.430614554837724e+05, 3.183357142273167e+02
96, 1.560000004000000e-03, -6.917517506923035e-03, 1.609144541678650e+00, 5.370725553168995e+01, -1.171715724095683e+02, 3.768235037283333e+05, 1.486644972832445e+05, 3.218418792851944e+02
97, 5.600000150000000e-04, -4.173159738460802e-03, 1.647738152237667e+00, 1.697647433593279e+01, -6.272270119405505e+01, 3.847182997845435e+05, 1.533748188322319e+05, 3.242621145356464e+02
98, 5.999999800000000e-05, -1.375329724321098e-03, 1.653141465897388e+00, -3.678188672811438e-01, 2.739130882377573e+00, 3.856205018813962e+05, 1.542472766781380e+05, 3.250407645823092e+02
99, 0.000000000000000e+00, 0.000000000000000e+00, 1.635867788205153e+00, -1.129248486023877e-03, 4.960091198751358e+01, 3.818164506876580e+05, 1.524257918508388e+05, 3.245940871102879e+02
100, 5.999999800000000e-05, 1.375329724321098e-03, 1.634280384930488e+00, 1.289571024578350e+01, 9.610349261738992e+01, 3.820552129392007e+05, 1.516714649121440e+05, 3.233014545171071e+02
101, 5.600000150000000e-04, 4.173159738460802e-03, 1.597409481859055e+00, 4.265622309024960e+01, 1.576051332728325e+02, 3.750110310805285e+05, 1.466666419099972e+05, 3.198493229771532e+02
102, 1.560000004000000e-03, 6.917517506923035e-03, 1.520199886728419e+00, 9.200655420472771e+01, 2.007285807045473e+02, 3.591942341788194e+05, 1.372631202257661e+05, 3.145455289690324e+02
103, 3.049999941000000e-03, 9.605565346412577e-03, 1.450081943744020e+00, 1.437033678693154e+02, 2.206245446210746e+02, 3.450797625567697e+05, 1.284702594998010e+05, 3.086316082216460e+02
104, 5.040000193000000e-03, 1.226032473458219e-02, 1.378603597938592e+00, 1.900218572345435e+02, 2.236882306196592e+02, 3.304977566949925e+05, 1.197017131639365e+05, 3.024762664390537e+02
