"PointID","x","y","Density","Momentum_x","Momentum_y","Energy","Pressure","Temperature"
0, 9.997500181200000e-01, -3.632896519016437e-05, 1.606160270783845e+00, 2.575281129181633e+02, 3.740740585651359e+01, 3.806792468472976e+05, 1.438391600704018e+05, 3.119741459613386e+02
1, 9.990000128750000e-01, -1.452537504052920e-04, 1.436003037326431e+00, 2.557288106574574e+02, 3.711013848286495e+01, 3.416076860620652e+05, 1.273430401988795e+05, 3.089229695245721e+02
2, 9.977599978450000e-01, -3.251111630156300e-04, 1.420892671461529e+00, 2.753613623549466e+02, 3.989464112714590e+01, 3.392235146407321e+05, 1.247926697658735e+05, 3.059554170530748e+02
3, 9.960200190539999e-01, -5.769983605901485e-04, 1.398857065713536e+00, 2.844760120408481e+02, 4.112237516126480e+01, 3.347373249304176e+05, 1.220827651426708e+05, 3.040264453822113e+02
4, 9.937800168990000e-01, -9.004365425509819e-04, 1.382206799893351e+00, 2.895512448923499e+02, 4.173519700319652e+01, 3.312614413190356e+05, 1.201212269312718e+05, 3.027450699414961e+02
5, 9.910500049590000e-01, -1.293363843462116e-03, 1.370331562462962e+00, 2.942505059691168e+02, 4.226360222261662e+01, 3.288586840140393e+05, 1.186459275289447e+05, 3.016181836666547e+02
6, 9.878399968150000e-01, -1.753609743384430e-03, 1.359389349525674e+00, 2.977451749910217e+02, 4.258856718695669e+01, 3.266007468783926e+05, 1.173305026554794e+05, 3.006750650007023e+02
7, 9.841300249100000e-01, -2.283176811071472e-03, 1.349724455098929e+00, 3.008297070853564e+02, 4.282603841501594e+01, 3.246119362690033e+05, 1.161630809022768e+05, 2.998149953935306e+02
8, 9.799500107769999e-01, -2.876826092032643e-03, 1.340815624667181e+00, 3.035319446852610e+02, 4.297950418329480e+01, 3.227741828528376e+05, 1.150915072583224e+05, 2.990229769327621e+02
9, 9.752799868580000e-01, -3.536324145770189e-03, 1.332515948993875e+00, 3.059570896465868e+02, 4.306627280696580e+01, 3.210598166153654e+05, 1.140954760740423e+05, 2.982815246502846e+02
10, 9.701499938960000e-01, -4.256268552403566e-03, 1.324695348498759e+00, 3.081593078026171e+02, 4.309363592470773e+01, 3.194420915454171e+05, 1.131592537071493e+05, 2.975804584808068e+02
11, 9.645400047300000e-01, -5.038225493362627e-03, 1.317256191720623e+00, 3.101792430006057e+02, 4.306944779690009e+01, 3.179010146836425e+05, 1.122709499364364e+05, 2.969118246652457e+02
12, 9.584699869160000e-01, -5.878077433056352e-03, 1.310144540136716e+00, 3.120505595903873e+02, 4.299865299259250e+01, 3.164261670265966e+05, 1.114233692408549e+05, 2.962698247440074e+02
13, 9.519400000570000e-01, -6.774428848839826e-03, 1.303305105640208e+00, 3.137890604593859e+02, 4.288507533677162e+01, 3.150057554367994e+05, 1.106102495054633e+05, 2.956511827197191e+02
14, 9.449599981310000e-01, -7.724467125531491e-03, 1.296707751915587e+00, 3.154168234867166e+02, 4.273284459595424e+01, 3.136341798387985e+05, 1.098273492894112e+05, 2.950521204267318e+02
15, 9.375399947170000e-01, -8.725349486403867e-03, 1.290324223912595e+00, 3.169442126220557e+02, 4.254472417075740e+01, 3.123055235990970e+05, 1.090713580684554e+05, 2.944707858729690e+02
16, 9.296900033950000e-01, -9.774221272349531e-03, 1.284126146832396e+00, 3.183842093643294e+02, 4.232326902817569e+01, 3.110140834603570e+05, 1.083387128361501e+05, 2.939045623515347e+02
17, 9.214000105860000e-01, -1.087086069705918e-02, 1.278086837004936e+00, 3.197461991684222e+02, 4.207154213008393e+01, 3.097543429545953e+05, 1.076262160625397e+05, 2.933513254187052e+02
18, 9.126999974250000e-01, -1.200973104171110e-02, 1.272197682919707e+00, 3.210381327256960e+02, 4.179078317203106e+01, 3.085247596733490e+05, 1.069325979239949e+05, 2.928099720736182e+02
19, 9.035800099370001e-01, -1.319055953446835e-02, 1.266434575884850e+00, 3.222621413819222e+02, 4.148321541790346e+01, 3.073199375215184e+05, 1.062553814234699e+05, 2.922796111588593e+02
20, 8.940600156780000e-01, -1.440916392228702e-02, 1.260797305744459e+00, 3.234308795419949e+02, 4.115103421809130e+01, 3.061406210333863e+05, 1.055937533914826e+05, 2.917583543038133e+02
21, 8.841500282290000e-01, -1.566269158090452e-02, 1.255271372880894e+00, 3.245445696261878e+02, 4.079523591549993e+01, 3.049834631801004e+05, 1.049463257662227e+05, 2.912459929716026e+02
22, 8.738499879840000e-01, -1.694956337677533e-02, 1.249832195631074e+00, 3.256039241945880e+02, 4.041702669821152e+01, 3.038429141091947e+05, 1.043106208524096e+05, 2.907415943950009e+02
23, 8.631799817090000e-01, -1.826569132102762e-02, 1.244490002044321e+00, 3.266234950343854e+02, 4.001893176632770e+01, 3.027222636658128e+05, 1.036866889390221e+05, 2.902431238099424e+02
24, 8.521599769590000e-01, -1.960709133914372e-02, 1.239210492516751e+00, 3.275969080674436e+02, 3.960025191947933e+01, 3.016132834093136e+05, 1.030715573658575e+05, 2.897504381881210e+02
25, 8.407700061800000e-01, -2.097463226217677e-02, 1.233991743593479e+00, 3.285338060697219e+02, 3.916354583904909e+01, 3.005162193324080e+05, 1.024643519979922e+05, 2.892616700214058e+02
26, 8.290500044819999e-01, -2.236196298315981e-02, 1.228822123867120e+00, 3.294329134292466e+02, 3.870817308174440e+01, 2.994283109087134e+05, 1.018640349394376e+05, 2.887767327841542e+02
27, 8.170099854470000e-01, -2.376642068849115e-02, 1.223696995741072e+00, 3.303002015791094e+02, 3.823515058391610e+01, 2.983489336044834e+05, 1.012697162323426e+05, 2.882942924974388e+02
28, 8.046399950980000e-01, -2.518763605296113e-02, 1.218607289267867e+00, 3.311342703998180e+02, 3.774466401339851e+01, 2.972759120442959e+05, 1.006806093135580e+05, 2.878143271376080e+02
29, 7.919700145720000e-01, -2.662062628442961e-02, 1.213554288502432e+00, 3.319368008516536e+02, 3.723612141738636e+01, 2.962096105236053e+05, 1.000967692256735e+05, 2.873367638479698e+02
30, 7.790099978450000e-01, -2.806276676215449e-02, 1.208536204179265e+00, 3.327146495612897e+02, 3.671048564517044e+01, 2.951501341720705e+05, 9.951750651111377e+04, 2.868601136095257e+02
31, 7.657799720760000e-01, -2.951033727360171e-02, 1.203530370768310e+00, 3.334664527730683e+02, 3.616663343450114e+01, 2.940922964286074e+05, 9.894060591799226e+04, 2.863834106299876e+02
32, 7.522799968720000e-01, -3.096181144522562e-02, 1.198500446810195e+00, 3.341916351065636e+02, 3.560380670990962e+01, 2.930279506296949e+05, 9.836234622297861e+04, 2.859045219756474e+02
33, 7.385200262070000e-01, -3.241453277608040e-02, 1.193444337783783e+00, 3.348982408358975e+02, 3.502195338997480e+01, 2.919572656807799e+05, 9.778187449486341e+04, 2.854214022631056e+02
34, 7.245299816130000e-01, -3.386376679305321e-02, 1.188369979939804e+00, 3.355866113642741e+02, 3.441972860164415e+01, 2.908820206340933e+05, 9.720000342601418e+04, 2.849344450321460e+02
35, 7.103199958800001e-01, -3.530689307158652e-02, 1.183256212835384e+00, 3.362491751405118e+02, 3.379501587459747e+01, 2.897968950136595e+05, 9.661514317685906e+04, 2.844439845165181e+02
36, 6.958900094030001e-01, -3.674225211597043e-02, 1.178130589133152e+00, 3.369018900401622e+02, 3.314813756072898e+01, 2.887092968460103e+05, 9.602888349459630e+04, 2.839479859328978e+02
37, 6.812700033190000e-01, -3.816515293304169e-02, 1.172939489488911e+00, 3.375257026451011e+02, 3.247497282629927e+01, 2.876057727361427e+05, 9.543716751017330e+04, 2.834472701555338e+02
38, 6.664699912070000e-01, -3.957289370556494e-02, 1.167699110054662e+00, 3.381359614614883e+02, 3.177534952780978e+01, 2.864911825022551e+05, 9.484042449869841e+04, 2.829390462634758e+02
39, 6.514999866490000e-01, -4.096270419333766e-02, 1.162387299846574e+00, 3.387293787580613e+02, 3.104683059461362e+01, 2.853603648890888e+05, 9.423658197260427e+04, 2.824223189177915e+02
40, 6.363800168040000e-01, -4.233084266562091e-02, 1.156989510834360e+00, 3.393027436262248e+02, 3.028684233015089e+01, 2.842098524702718e+05, 9.362435642594087e+04, 2.818965553287816e+02
41, 6.211299896240000e-01, -4.367359094194759e-02, 1.151508220922757e+00, 3.398631052853671e+02, 2.949357144620535e+01, 2.830408120096076e+05, 9.300339032776837e+04, 2.813598235700695e+02
42, 6.057599782940000e-01, -4.498807223669178e-02, 1.145913683747130e+00, 3.404014082324422e+02, 2.866361877690012e+01, 2.818459414377614e+05, 9.237127154387282e+04, 2.808118054477451e+02
43, 5.902799963950000e-01, -4.627132533375768e-02, 1.140216201900925e+00, 3.409269145742771e+02, 2.779503917751042e+01, 2.806283446259118e+05, 9.172826072008858e+04, 2.802504356096109e+02
44, 5.747100114820000e-01, -4.751950934859488e-02, 1.134397824018362e+00, 3.414289751560592e+02, 2.688377134873660e+01, 2.793831946532833e+05, 9.107332242512422e+04, 2.796766060988834e+02
45, 5.590599775310000e-01, -4.872955796694115e-02, 1.128481033025359e+00, 3.419153696996572e+02, 2.592807945807886e+01, 2.781161681193952e+05, 9.040812226892923e+04, 2.790895211317646e+02
46, 5.433599948880000e-01, -4.989683951066199e-02, 1.122448345533337e+00, 3.423746986097732e+02, 2.492336847001705e+01, 2.768224711973307e+05, 8.973174454998653e+04, 2.784903124857101e+02
47, 5.276100039480000e-01, -5.101897737545535e-02, 1.116317216659101e+00, 3.428124875625131e+02, 2.386792376949442e+01, 2.755064830996034e+05, 8.904551035129053e+04, 2.778783745827416e+02
48, 5.118399858470000e-01, -5.209138375948307e-02, 1.110095911291455e+00, 3.432171963142612e+02, 2.275671163043075e+01, 2.741690449477216e+05, 8.835127755001577e+04, 2.772570997481461e+02
49, 4.960500001910000e-01, -5.311153541819326e-02, 1.103866884193058e+00, 3.436026170579427e+02, 2.158849216910932e+01, 2.728295227674869e+05, 8.765660713463934e+04, 2.766293760804531e+02
50, 4.802699983120000e-01, -5.407492053959814e-02, 1.097573251997535e+00, 3.439626498954903e+02, 2.035878649647972e+01, 2.714749225252050e+05, 8.695591688742627e+04, 2.759916668489590e+02
51, 4.645099937920000e-01, -5.497835513414191e-02, 1.090844018129802e+00, 3.443005886731416e+02, 1.906476810038873e+01, 2.700243541743461e+05, 8.620894178136345e+04, 2.753087439390102e+02
52, 4.487800002100000e-01, -5.581859897363720e-02, 1.083257589801541e+00, 3.445918396993721e+02, 1.770218078070774e+01, 2.683836387068279e+05, 8.537218264187295e+04, 2.745459171270194e+02
53, 4.331099987030000e-01, -5.659141825851464e-02, 1.075704211206422e+00, 3.448231294348362e+02, 1.626631587888821e+01, 2.667466705952226e+05, 8.454246909262748e+04, 2.737867357547368e+02
54, 4.174999892710000e-01, -5.729416860686566e-02, 1.070710255701312e+00, 3.449929952173698e+02, 1.475497841800996e+01, 2.656649638571588e+05, 8.399331644265626e+04, 2.732770194411891e+02
55, 4.019699990750000e-01, -5.792324246601335e-02, 1.070405280802167e+00, 3.451519895103111e+02, 1.316662536125401e+01, 2.656070832037628e+05, 8.395160246901827e+04, 2.732191228120738e+02
56, 3.865399956700000e-01, -5.847520956655861e-02, 1.072295294046496e+00, 3.453226169944726e+02, 1.149878209969503e+01, 2.660301020642444e+05, 8.414579896853428e+04, 2.733684458391356e+02
57, 3.712300062180000e-01, -5.894684318665333e-02, 1.066429156796892e+00, 3.454898697418589e+02, 9.746281367302673e+00, 2.647597318760069e+05, 8.350048426642247e+04, 2.727641748943649e+02
58, 3.560400009160000e-01, -5.933561549045978e-02, 1.041270984035638e+00, 3.454258486649246e+02, 7.900405800562782e+00, 2.592673862381374e+05, 8.077700923258910e+04, 2.702429344965708e+02
59, 3.409900069240000e-01, -5.963847719943702e-02, 1.000665931174284e+00, 3.447454830969843e+02, 5.954191439213765e+00, 2.503894967646488e+05, 7.639464189862089e+04, 2.659525328706580e+02
60, 3.261100053790000e-01, -5.985254444802346e-02, 9.695139880332603e-01, 3.438127283620178e+02, 3.917706663534391e+00, 2.435706810081011e+05, 7.304027139067938e+04, 2.624452060237752e+02
61, 3.113999962810000e-01, -5.997565198183213e-02, 9.579388750979876e-01, 3.432425063597171e+02, 1.795521243491903e+00, 2.410209068270731e+05, 7.180999948837608e+04, 2.611424478886469e+02
62, 2.968699932100000e-01, -6.000550062925582e-02, 9.585312341315851e-01, 3.431791664955415e+02, -4.234385793165809e-01, 2.411412898448183e+05, 7.188306117231294e+04, 2.612465955677368e+02
63, 2.825500071050000e-01, -5.994005483718394e-02, 9.627968847347051e-01, 3.433021284684069e+02, -2.752271395867233e+00, 2.420721598564769e+05, 7.234521047891093e+04, 2.617613087783574e+02
64, 2.684499919410000e-01, -5.977765596976551e-02, 9.670863431386929e-01, 3.434938660132737e+02, -5.198769563363960e+00, 2.430174843948009e+05, 7.280068008572057e+04, 2.622409631736820e+02
65, 2.545700073240000e-01, -5.951657836311273e-02, 9.710267514860198e-01, 3.436562829368218e+02, -7.767522510340329e+00, 2.438872078591239e+05, 7.321776266224690e+04, 2.626731029534848e+02
66, 2.409400045870000e-01, -5.915585896897953e-02, 9.753372356165917e-01, 3.438203884160157e+02, -1.046754845963192e+01, 2.448395888106893e+05, 7.367304215588895e+04, 2.631383481232234e+02
67, 2.275699973110000e-01, -5.869456802648413e-02, 9.802359944633202e-01, 3.439552630792941e+02, -1.330451373228996e+01, 2.459190203519547e+05, 7.419338198405558e+04, 2.636725185984027e+02
68, 2.144699990750000e-01, -5.813197420944613e-02, 9.856425090869257e-01, 3.440672985049201e+02, -1.628651467400305e+01, 2.471094000992167e+05, 7.476858970828274e+04, 2.642591956294875e+02
69, 2.016600072380000e-01, -5.746811193675738e-02, 9.913583443580711e-01, 3.441266331789561e+02, -1.942343082702466e+01, 2.483655637438413e+05, 7.537902735888520e+04, 2.648806345628601e+02
70, 1.891400069000000e-01, -5.670228146432130e-02, 9.974393794576206e-01, 3.441427618234512e+02, -2.272448795108783e+01, 2.497011835219774e+05, 7.602927095620804e+04, 2.655367655875217e+02
71, 1.769299954180000e-01, -5.583513598033686e-02, 1.004165657441596e+00, 3.441080421997611e+02, -2.620345632611325e+01, 2.511768671651286e+05, 7.675016551627271e+04, 2.662590031143122e+02
72, 1.650400012730000e-01, -5.486709202536137e-02, 1.011831428240464e+00, 3.440163723945204e+02, -2.987188073237670e+01, 2.528567721287972e+05, 7.757364578311273e+04, 2.670769348104161e+02
73, 1.534900069240000e-01, -5.379977779145956e-02, 1.020399014950806e+00, 3.438304961551381e+02, -3.374316261664568e+01, 2.547304900606518e+05, 7.849781610800487e+04, 2.679895682303859e+02
74, 1.422899961470000e-01, -5.263443049277360e-02, 1.029637071310771e+00, 3.435317542535801e+02, -3.783430659376188e+01, 2.567475884523663e+05, 7.949755900366072e+04, 2.689676003848940e+02
75, 1.314399987460000e-01, -5.137133628795417e-02, 1.039343471948552e+00, 3.430773932045003e+02, -4.216213705259479e+01, 2.588616586225712e+05, 8.055327575986780e+04, 2.699942148837094e+02
76, 1.209499984980000e-01, -5.001187382363489e-02, 1.049631129083584e+00, 3.424778676260530e+02, -4.675041409480605e+01, 2.611000020639665e+05, 8.167453823187764e+04, 2.710692978947577e+02
77, 1.108499988910000e-01, -4.856066993422563e-02, 1.060693360141903e+00, 3.416939098770359e+02, -5.162855911257278e+01, 2.635032052432065e+05, 8.288389099244526e+04, 2.722141057465337e+02
78, 1.011300012470000e-01, -4.701715290498424e-02, 1.072599585384742e+00, 3.406518730649099e+02, -5.681227145685763e+01, 2.660821056446495e+05, 8.419316690539606e+04, 2.734447353322065e+02
79, 9.181000292300000e-02, -4.538527151431038e-02, 1.085380836683527e+00, 3.393031011249982e+02, -6.233719136684764e+01, 2.688423552744028e+05, 8.560684792748302e+04, 2.747620210995156e+02
80, 8.290000259900000e-02, -4.366791468532204e-02, 1.099134409214722e+00, 3.376182039955055e+02, -6.824486026084605e+01, 2.718065565338025e+05, 8.713410502613361e+04, 2.761644143901880e+02
81, 7.440000027400000e-02, -4.186607976498817e-02, 1.113909922933529e+00, 3.355041143733997e+02, -7.456765528271518e+01, 2.749818790551472e+05, 8.878397278925014e+04, 2.776609766519620e+02
82, 6.633000075800000e-02, -3.998513962421356e-02, 1.129857347358544e+00, 3.328776551457009e+02, -8.135948841170065e+01, 2.783999251656668e+05, 9.057382393473209e+04, 2.792604508140423e+02
83, 5.869000032500000e-02, -3.802635805630503e-02, 1.147101728847228e+00, 3.296116766834352e+02, -8.866112693492347e+01, 2.820843294894836e+05, 9.252085981494191e+04, 2.809752531026119e+02
84, 5.149000138000000e-02, -3.599337852580232e-02, 1.165812419296267e+00, 3.255417834063732e+02, -9.652075774003694e+01, 2.860675682505225e+05, 9.464790889148435e+04, 2.828216756902630e+02
85, 4.473999887700000e-02, -3.389028465845557e-02, 1.186316957140031e+00, 3.204532966267029e+02, -1.049826008913558e+02, 2.904157943599571e+05, 9.699578138362075e+04, 2.848278509434571e+02
86, 3.844000026600000e-02, -3.171811260404538e-02, 1.208919744785614e+00, 3.140715458710469e+02, -1.140693051824764e+02, 2.951888445477106e+05, 9.960404824465555e+04, 2.870184828596468e+02
87, 3.260000050100000e-02, -2.948109446637338e-02, 1.233983120667943e+00, 3.060596841425075e+02, -1.237866107715267e+02, 3.004595855930521e+05, 1.025181703495795e+05, 2.894156241387802e+02
88, 2.723000012300000e-02, -2.718419978786347e-02, 1.261917713514922e+00, 2.959094732693093e+02, -1.340746270895108e+02, 3.063049538694545e+05, 1.057953089811932e+05, 2.920557223945027e+02
89, 2.232000045500000e-02, -2.482329437156798e-02, 1.293255984283920e+00, 2.830098697986151e+02, -1.447067338609563e+02, 3.128279593525825e+05, 1.095063381642962e+05, 2.949749289728431e+02
90, 1.789999939500000e-02, -2.241364555514381e-02, 1.328510035114856e+00, 2.665163777652925e+02, -1.553363905395163e+02, 3.201235535714953e+05, 1.137235418601009e+05, 2.982056606510768e+02
91, 1.394999958600000e-02, -1.994492353858276e-02, 1.368315427124802e+00, 2.454804017459667e+02, -1.651272839305337e+02, 3.283140710748738e+05, 1.185321385949989e+05, 3.017729038874968e+02
92, 1.049000024800000e-02, -1.742916196961543e-02, 1.412799764376944e+00, 2.186896716789638e+02, -1.726852795866590e+02, 3.374035818866358e+05, 1.239697295787668e+05, 3.056788461587418e+02
93, 7.519999985000000e-03, -1.486756313872443e-02, 1.461584573921524e+00, 1.852337508080040e+02, -1.756776327888093e+02, 3.473022098908526e+05, 1.300025942776514e+05, 3.098549322603524e+02
94, 5.040000193000000e-03, -1.226032473458219e-02, 1.513193048272791e+00, 1.447516877879570e+02, -1.703988935293272e+02, 3.576896271340818e+05, 1.364687845456636e+05, 3.141733416828449e+02
95, 3.049999941000000e-03, -9.605565346412577e-03, 1.565652974205886e+00, 9.906665474400873e+01, -1.520959799540700e+02, 3.682134627271717e+05, 1.430766121707943e+05, 3.183489971801390e+02
96, 1.560000004000000e-03, -6.917517506923035e-03, 1.609186114210195e+00, 5.364435417423014e+01, -1.170353008480527e+02, 3.768332802105263e+05, 1.486732671667213e+05, 3.218525499772929e+02
97, 5.600000150000000e-04, -4.173159738460802e-03, 1.647809891104820e+00, 1.691891928978020e+01, -6.251188493838452e+01, 3.847348736137381e+05, 1.533849118907234e+05, 3.242693351191140e+02
98, 5.999999800000000e-05, -1.375329724321098e-03, 1.653137714024013e+00, -4.061080190698970e-01, 3.026345695095332e+00, 3.856148592013632e+05, 1.542448156811160e+05, 3.250363162788762e+02
99, 0.000000000000000e+00, 0.000000000000000e+00, 1.635974318667529e+00, 7.198417965095516e-15, 4.990326567246255e+01, 3.818279491929059e+05, 1.524267328534732e+05, 3.245749541291188e+02
100, 5.999999800000000e-05, 1.375329724321098e-03, 1.634232094896741e+00, 1.291855469750192e+01, 9.626998374762314e+01, 3.820288399569534e+05, 1.516568898519530e+05, 3.232799387955156e+02
101, 5.600000150000000e-04, 4.173159738460802e-03, 1.597368488827468e+00, 4.267675159288029e+01, 1.576817135554059e+02, 3.749917166823705e+05, 1.466555880970175e+05, 3.198334245463094e+02
102, 1.560000004000000e-03, 6.917517506923035e-03, 1.520039730516850e+00, 9.203221744255231e+01, 2.007856823314453e+02, 3.591522837322919e+05, 1.372420261050049e+05, 3.145303271243235e+02
103, 3.049999941000000e-03, 9.605565346412577e-03, 1.449886176295833e+00, 1.437130302468143e+02, 2.206410847730785e+02, 3.450348741556613e+05, 1.284496232363512e+05, 3.086236980789549e+02
104, 5.040000193000000e-03, 1.226032473458219e-02, 1.378432860372064e+00, 1.900164875744805e+02, 2.236837423440010e+02, 3.304632686877936e+05, 1.196869574117115e+05, 3.024764410423969e+02
