"PointID","x","y","Density","Momentum_x","Momentum_y","Energy","Pressure","Temperature"
0, 9.997500181200000e-01, -3.632896519016437e-05, 1.606160270783552e+00, 2.575281129207344e+02, 3.740740585688552e+01, 3.806792468473054e+05, 1.438391600702350e+05, 3.119741459610338e+02
1, 9.990000128750000e-01, -1.452537504052920e-04, 1.436003037325170e+00, 2.557288106588571e+02, 3.711013848306775e+01, 3.416076860618141e+05, 1.273430401986691e+05, 3.089229695243329e+02
2, 9.977599978450000e-01, -3.251111630156300e-04, 1.420892671460665e+00, 2.753613623561543e+02, 3.989464112732113e+01, 3.392235146405681e+05, 1.247926697657057e+05, 3.059554170528493e+02
3, 9.960200190539999e-01, -5.769983605901485e-04, 1.398857065712829e+00, 2.844760120418863e+02, 4.112237516141525e+01, 3.347373249302822e+05, 1.220827651425244e+05, 3.040264453820004e+02
4, 9.937800168990000e-01, -9.004365425509819e-04, 1.382206799892811e+00, 2.895512448932935e+02, 4.173519700333301e+01, 3.312614413189354e+05, 1.201212269311462e+05, 3.027450699412977e+02
5, 9.910500049590000e-01, -1.293363843462116e-03, 1.370331562462509e+00, 2.942505059699896e+02, 4.226360222274258e+01, 3.288586840139567e+05, 1.186459275288309e+05, 3.016181836664649e+02
6, 9.878399968150000e-01, -1.753609743384430e-03, 1.359389349525270e+00, 2.977451749918514e+02, 4.258856718707602e+01, 3.266007468783199e+05, 1.173305026553722e+05, 3.006750650005169e+02
7, 9.841300249100000e-01, -2.283176811071472e-03, 1.349724455098573e+00, 3.008297070861628e+02, 4.282603841513134e+01, 3.246119362689418e+05, 1.161630809021752e+05, 2.998149953933476e+02
8, 9.799500107769999e-01, -2.876826092032643e-03, 1.340815624666897e+00, 3.035319446860449e+02, 4.297950418340628e+01, 3.227741828527921e+05, 1.150915072582287e+05, 2.990229769325824e+02
9, 9.752799868580000e-01, -3.536324145770189e-03, 1.332515948993686e+00, 3.059570896473575e+02, 4.306627280707497e+01, 3.210598166153416e+05, 1.140954760739586e+05, 2.982815246501081e+02
10, 9.701499938960000e-01, -4.256268552403566e-03, 1.324695348498595e+00, 3.081593078033818e+02, 4.309363592481558e+01, 3.194420915454001e+05, 1.131592537070681e+05, 2.975804584806302e+02
11, 9.645400047300000e-01, -5.038225493362627e-03, 1.317256191720429e+00, 3.101792430013750e+02, 4.306944779700790e+01, 3.179010146836210e+05, 1.122709499363517e+05, 2.969118246650655e+02
12, 9.584699869160000e-01, -5.878077433056352e-03, 1.310144540136544e+00, 3.120505595911576e+02, 4.299865299269951e+01, 3.164261670265818e+05, 1.114233692407722e+05, 2.962698247438262e+02
13, 9.519400000570000e-01, -6.774428848839826e-03, 1.303305105640142e+00, 3.137890604601639e+02, 4.288507533687847e+01, 3.150057554368104e+05, 1.106102495053905e+05, 2.956511827195397e+02
14, 9.449599981310000e-01, -7.724467125531491e-03, 1.296707751915600e+00, 3.154168234874844e+02, 4.273284459605876e+01, 3.136341798388276e+05, 1.098273492893470e+05, 2.950521204265563e+02
15, 9.375399947170000e-01, -8.725349486403867e-03, 1.290324223912629e+00, 3.169442126228307e+02, 4.254472417086188e+01, 3.123055235991328e+05, 1.090713580683926e+05, 2.944707858727917e+02
16, 9.296900033950000e-01, -9.774221272349531e-03, 1.284126146832388e+00, 3.183842093651160e+02, 4.232326902828063e+01, 3.110140834603857e+05, 1.083387128360821e+05, 2.939045623513520e+02
17, 9.214000105860000e-01, -1.087086069705918e-02, 1.278086837004938e+00, 3.197461991692098e+02, 4.207154213018785e+01, 3.097543429546273e+05, 1.076262160624723e+05, 2.933513254185212e+02
18, 9.126999974250000e-01, -1.200973104171110e-02, 1.272197682919796e+00, 3.210381327264939e+02, 4.179078317213501e+01, 3.085247596734025e+05, 1.069325979239355e+05, 2.928099720734351e+02
19, 9.035800099370001e-01, -1.319055953446835e-02, 1.266434575885005e+00, 3.222621413827197e+02, 4.148321541800628e+01, 3.073199375215879e+05, 1.062553814234172e+05, 2.922796111586787e+02
20, 8.940600156780000e-01, -1.440916392228702e-02, 1.260797305744623e+00, 3.234308795428018e+02, 4.115103421819406e+01, 3.061406210334595e+05, 1.055937533914300e+05, 2.917583543036299e+02
21, 8.841500282290000e-01, -1.566269158090452e-02, 1.255271372881040e+00, 3.245445696269994e+02, 4.079523591560215e+01, 3.049834631801712e+05, 1.049463257661677e+05, 2.912459929714161e+02
22, 8.738499879840000e-01, -1.694956337677533e-02, 1.249832195631241e+00, 3.256039241954135e+02, 4.041702669831412e+01, 3.038429141092721e+05, 1.043106208523556e+05, 2.907415943948114e+02
23, 8.631799817090000e-01, -1.826569132102762e-02, 1.244490002044508e+00, 3.266234950352139e+02, 4.001893176642942e+01, 3.027222636658960e+05, 1.036866889389697e+05, 2.902431238097522e+02
24, 8.521599769590000e-01, -1.960709133914372e-02, 1.239210492516933e+00, 3.275969080682823e+02, 3.960025191958076e+01, 3.016132834093980e+05, 1.030715573658039e+05, 2.897504381879276e+02
25, 8.407700061800000e-01, -2.097463226217677e-02, 1.233991743593653e+00, 3.285338060705640e+02, 3.916354583914944e+01, 3.005162193324920e+05, 1.024643519979374e+05, 2.892616700212101e+02
26, 8.290500044819999e-01, -2.236196298315981e-02, 1.228822123867344e+00, 3.294329134300942e+02, 3.870817308184359e+01, 2.994283109088102e+05, 1.018640349393875e+05, 2.887767327839594e+02
27, 8.170099854470000e-01, -2.376642068849115e-02, 1.223696995741423e+00, 3.303002015799530e+02, 3.823515058401328e+01, 2.983489336046088e+05, 1.012697162323056e+05, 2.882942924972509e+02
28, 8.046399950980000e-01, -2.518763605296113e-02, 1.218607289268327e+00, 3.311342704006673e+02, 3.774466401349470e+01, 2.972759120444473e+05, 1.006806093135319e+05, 2.878143271374249e+02
29, 7.919700145720000e-01, -2.662062628442961e-02, 1.213554288502877e+00, 3.319368008525057e+02, 3.723612141748156e+01, 2.962096105237546e+05, 1.000967692256456e+05, 2.873367638477844e+02
30, 7.790099978450000e-01, -2.806276676215449e-02, 1.208536204179612e+00, 3.327146495621541e+02, 3.671048564526559e+01, 2.951501341722004e+05, 9.951750651107469e+04, 2.868601136093307e+02
31, 7.657799720760000e-01, -2.951033727360171e-02, 1.203530370768574e+00, 3.334664527739391e+02, 3.616663343459539e+01, 2.940922964287204e+05, 9.894060591794395e+04, 2.863834106297847e+02
32, 7.522799968720000e-01, -3.096181144522562e-02, 1.198500446810495e+00, 3.341916351074392e+02, 3.560380671000267e+01, 2.930279506298168e+05, 9.836234622293334e+04, 2.859045219754444e+02
33, 7.385200262070000e-01, -3.241453277608040e-02, 1.193444337784213e+00, 3.348982408367690e+02, 3.502195339006571e+01, 2.919572656809312e+05, 9.778187449483186e+04, 2.854214022629105e+02
34, 7.245299816130000e-01, -3.386376679305321e-02, 1.188369979940304e+00, 3.355866113651490e+02, 3.441972860173376e+01, 2.908820206342606e+05, 9.720000342598934e+04, 2.849344450319531e+02
35, 7.103199958800001e-01, -3.530689307158652e-02, 1.183256212835742e+00, 3.362491751413921e+02, 3.379501587468610e+01, 2.897968950137960e+05, 9.661514317681846e+04, 2.844439845163124e+02
36, 6.958900094030001e-01, -3.674225211597043e-02, 1.178130589133228e+00, 3.369018900410568e+02, 3.314813756081734e+01, 2.887092968460859e+05, 9.602888349452446e+04, 2.839479859326672e+02
37, 6.812700033190000e-01, -3.816515293304169e-02, 1.172939489488765e+00, 3.375257026460007e+02, 3.247497282638597e+01, 2.876057727361706e+05, 9.543716751007749e+04, 2.834472701552845e+02
38, 6.664699912070000e-01, -3.957289370556494e-02, 1.167699110054595e+00, 3.381359614623804e+02, 3.177534952789301e+01, 2.864911825023010e+05, 9.484042449861139e+04, 2.829390462632323e+02
39, 6.514999866490000e-01, -4.096270419333766e-02, 1.162387299846818e+00, 3.387293787589395e+02, 3.104683059469315e+01, 2.853603648892035e+05, 9.423658197255112e+04, 2.824223189175727e+02
40, 6.363800168040000e-01, -4.233084266562091e-02, 1.156989510834748e+00, 3.393027436270902e+02, 3.028684233022617e+01, 2.842098524704183e+05, 9.362435642590390e+04, 2.818965553285758e+02
41, 6.211299896240000e-01, -4.367359094194759e-02, 1.151508220923163e+00, 3.398631052862373e+02, 2.949357144627890e+01, 2.830408120097598e+05, 9.300339032773288e+04, 2.813598235698629e+02
42, 6.057599782940000e-01, -4.498807223669178e-02, 1.145913683747802e+00, 3.404014082333039e+02, 2.866361877697031e+01, 2.818459414379725e+05, 9.237127154386611e+04, 2.808118054475601e+02
43, 5.902799963950000e-01, -4.627132533375768e-02, 1.140216201902002e+00, 3.409269145751426e+02, 2.779503917757867e+01, 2.806283446262128e+05, 9.172826072012421e+04, 2.802504356094551e+02
44, 5.747100114820000e-01, -4.751950934859488e-02, 1.134397824019211e+00, 3.414289751569395e+02, 2.688377134880429e+01, 2.793831946535354e+05, 9.107332242513388e+04, 2.796766060987037e+02
45, 5.590599775310000e-01, -4.872955796694115e-02, 1.128481033025326e+00, 3.419153697005693e+02, 2.592807945814743e+01, 2.781161681194565e+05, 9.040812226884199e+04, 2.790895211315033e+02
46, 5.433599948880000e-01, -4.989683951066199e-02, 1.122448345533104e+00, 3.423746986106827e+02, 2.492336847008262e+01, 2.768224711973496e+05, 8.973174454987816e+04, 2.784903124854313e+02
47, 5.276100039480000e-01, -5.101897737545535e-02, 1.116317216659965e+00, 3.428124875634175e+02, 2.386792376955730e+01, 2.755064830998647e+05, 8.904551035129982e+04, 2.778783745825555e+02
48, 5.118399858470000e-01, -5.209138375948307e-02, 1.110095911292339e+00, 3.432171963151835e+02, 2.275671163049281e+01, 2.741690449479902e+05, 8.835127755002558e+04, 2.772570997479561e+02
49, 4.960500001910000e-01, -5.311153541819326e-02, 1.103866884190746e+00, 3.436026170589024e+02, 2.158849216917190e+01, 2.728295227670589e+05, 8.765660713430318e+04, 2.766293760799716e+02
50, 4.802699983120000e-01, -5.407492053959814e-02, 1.097573251992376e+00, 3.439626498964339e+02, 2.035878649653682e+01, 2.714749225241551e+05, 8.695591688678594e+04, 2.759916668482239e+02
51, 4.645099937920000e-01, -5.497835513414191e-02, 1.090844018128721e+00, 3.443005886740335e+02, 1.906476810043804e+01, 2.700243541741896e+05, 8.620894178116633e+04, 2.753087439386534e+02
52, 4.487800002100000e-01, -5.581859897363720e-02, 1.083257589808321e+00, 3.445918397002456e+02, 1.770218078075243e+01, 2.683836387083887e+05, 8.537218264252340e+04, 2.745459171273928e+02
53, 4.331099987030000e-01, -5.659141825851464e-02, 1.075704211213345e+00, 3.448231294357724e+02, 1.626631587893525e+01, 2.667466705968127e+05, 8.454246909328579e+04, 2.737867357551066e+02
54, 4.174999892710000e-01, -5.729416860686566e-02, 1.070710255698940e+00, 3.449929952184674e+02, 1.475497841806401e+01, 2.656649638567248e+05, 8.399331644229154e+04, 2.732770194406079e+02
55, 4.019699990750000e-01, -5.792324246601335e-02, 1.070405280788214e+00, 3.451519895116327e+02, 1.316662536131929e+01, 2.656070832008108e+05, 8.395160246737610e+04, 2.732191228102910e+02
56, 3.865399956700000e-01, -5.847520956655861e-02, 1.072295294021485e+00, 3.453226169959227e+02, 1.149878209976407e+01, 2.660301020588745e+05, 8.414579896567986e+04, 2.733684458362388e+02
57, 3.712300062180000e-01, -5.894684318665333e-02, 1.066429156767007e+00, 3.454898697434359e+02, 9.746281367372594e+00, 2.647597318695656e+05, 8.350048426301350e+04, 2.727641748908729e+02
58, 3.560400009160000e-01, -5.933561549045978e-02, 1.041270984033400e+00, 3.454258486669256e+02, 7.900405800629932e+00, 2.592673862377677e+05, 8.077700923212622e+04, 2.702429344956032e+02
59, 3.409900069240000e-01, -5.963847719943702e-02, 1.000665931242988e+00, 3.447454831010570e+02, 5.954191439283328e+00, 2.503894967798706e+05, 7.639464190577963e+04, 2.659525328773199e+02
60, 3.261100053790000e-01, -5.985254444802346e-02, 9.695139881268898e-01, 3.438127283671569e+02, 3.917706663570236e+00, 2.435706810287399e+05, 7.304027140056113e+04, 2.624452060339366e+02
61, 3.113999962810000e-01, -5.997565198183213e-02, 9.579388751465004e-01, 3.432425063628511e+02, 1.795521243448144e+00, 2.410209068377875e+05, 7.180999949345844e+04, 2.611424478939043e+02
62, 2.968699932100000e-01, -6.000550062925582e-02, 9.585312341206003e-01, 3.431791664958597e+02, -4.234385793606515e-01, 2.411412898424822e+05, 7.188306117105133e+04, 2.612465955661456e+02
63, 2.825500071050000e-01, -5.994005483718394e-02, 9.627968846874860e-01, 3.433021284665778e+02, -2.752271395881233e+00, 2.420721598461444e+05, 7.234521047383803e+04, 2.617613087728402e+02
64, 2.684499919410000e-01, -5.977765596976551e-02, 9.670863430908294e-01, 3.434938660109623e+02, -5.198769563343550e+00, 2.430174843842831e+05, 7.280068008063397e+04, 2.622409631683381e+02
65, 2.545700073240000e-01, -5.951657836311273e-02, 9.710267514576579e-01, 3.436562829351020e+02, -7.767522510299098e+00, 2.438872078528591e+05, 7.321776265927369e+04, 2.626731029504905e+02
66, 2.409400045870000e-01, -5.915585896897953e-02, 9.753372356069002e-01, 3.438203884150520e+02, -1.046754845960059e+01, 2.448395888085067e+05, 7.367304215491080e+04, 2.631383481223444e+02
67, 2.275699973110000e-01, -5.869456802648413e-02, 9.802359944646842e-01, 3.439552630789381e+02, -1.330451373227141e+01, 2.459190203522067e+05, 7.419338198424006e+04, 2.636725185986914e+02
68, 2.144699990750000e-01, -5.813197420944613e-02, 9.856425090923576e-01, 3.440672985048448e+02, -1.628651467399787e+01, 2.471094001003736e+05, 7.476858970888876e+04, 2.642591956301731e+02
69, 2.016600072380000e-01, -5.746811193675738e-02, 9.913583443634197e-01, 3.441266331790032e+02, -1.942343082702757e+01, 2.483655637449906e+05, 7.537902735946765e+04, 2.648806345634777e+02
70, 1.891400069000000e-01, -5.670228146432130e-02, 9.974393794614971e-01, 3.441427618234795e+02, -2.272448795109051e+01, 2.497011835228087e+05, 7.602927095662932e+04, 2.655367655879611e+02
71, 1.769299954180000e-01, -5.583513598033686e-02, 1.004165657443972e+00, 3.441080421997468e+02, -2.620345632611388e+01, 2.511768671656330e+05, 7.675016551653252e+04, 2.662590031145835e+02
72, 1.650400012730000e-01, -5.486709202536137e-02, 1.011831428241834e+00, 3.440163723944761e+02, -2.987188073237438e+01, 2.528567721290818e+05, 7.757364578326455e+04, 2.670769348105773e+02
73, 1.534900069240000e-01, -5.379977779145956e-02, 1.020399014951646e+00, 3.438304961550662e+02, -3.374316261664070e+01, 2.547304900608201e+05, 7.849781610810122e+04, 2.679895682304943e+02
74, 1.422899961470000e-01, -5.263443049277360e-02, 1.029637071311382e+00, 3.435317542534997e+02, -3.783430659375507e+01, 2.567475884524843e+05, 7.949755900373250e+04, 2.689676003849772e+02
75, 1.314399987460000e-01, -5.137133628795417e-02, 1.039343471949091e+00, 3.430773932044124e+02, -4.216213705258664e+01, 2.588616586226737e+05, 8.055327575993247e+04, 2.699942148837860e+02
76, 1.209499984980000e-01, -5.001187382363489e-02, 1.049631129084097e+00, 3.424778676259619e+02, -4.675041409479618e+01, 2.611000020640632e+05, 8.167453823193948e+04, 2.710692978948305e+02
77, 1.108499988910000e-01, -4.856066993422563e-02, 1.060693360142385e+00, 3.416939098769405e+02, -5.162855911256133e+01, 2.635032052432967e+05, 8.288389099250411e+04, 2.722141057466031e+02
78, 1.011300012470000e-01, -4.701715290498424e-02, 1.072599585385200e+00, 3.406518730648106e+02, -5.681227145684459e+01, 2.660821056447345e+05, 8.419316690545245e+04, 2.734447353322729e+02
79, 9.181000292300000e-02, -4.538527151431038e-02, 1.085380836683968e+00, 3.393031011248966e+02, -6.233719136683222e+01, 2.688423552744844e+05, 8.560684792753764e+04, 2.747620210995793e+02
80, 8.290000259900000e-02, -4.366791468532204e-02, 1.099134409215150e+00, 3.376182039954003e+02, -6.824486026082815e+01, 2.718065565338814e+05, 8.713410502618697e+04, 2.761644143902494e+02
81, 7.440000027400000e-02, -4.186607976498817e-02, 1.113909922933946e+00, 3.355041143732910e+02, -7.456765528269474e+01, 2.749818790552240e+05, 8.878397278930241e+04, 2.776609766520214e+02
82, 6.633000075800000e-02, -3.998513962421356e-02, 1.129857347358953e+00, 3.328776551455894e+02, -8.135948841167689e+01, 2.783999251657420e+05, 9.057382393478349e+04, 2.792604508140997e+02
83, 5.869000032500000e-02, -3.802635805630503e-02, 1.147101728847633e+00, 3.296116766833199e+02, -8.866112693489629e+01, 2.820843294895583e+05, 9.252085981499302e+04, 2.809752531026680e+02
84, 5.149000138000000e-02, -3.599337852580232e-02, 1.165812419296670e+00, 3.255417834062538e+02, -9.652075774000518e+01, 2.860675682505969e+05, 9.464790889153533e+04, 2.828216756903175e+02
85, 4.473999887700000e-02, -3.389028465845557e-02, 1.186316957140434e+00, 3.204532966265776e+02, -1.049826008913187e+02, 2.904157943600314e+05, 9.699578138367183e+04, 2.848278509435106e+02
86, 3.844000026600000e-02, -3.171811260404538e-02, 1.208919744786016e+00, 3.140715458709157e+02, -1.140693051824326e+02, 2.951888445477851e+05, 9.960404824470679e+04, 2.870184828596990e+02
87, 3.260000050100000e-02, -2.948109446637338e-02, 1.233983120668344e+00, 3.060596841423682e+02, -1.237866107714745e+02, 3.004595855931263e+05, 1.025181703496309e+05, 2.894156241388312e+02
88, 2.723000012300000e-02, -2.718419978786347e-02, 1.261917713515323e+00, 2.959094732691614e+02, -1.340746270894479e+02, 3.063049538695290e+05, 1.057953089812448e+05, 2.920557223945523e+02
89, 2.232000045500000e-02, -2.482329437156798e-02, 1.293255984284317e+00, 2.830098697984563e+02, -1.447067338608796e+02, 3.128279593526558e+05, 1.095063381643477e+05, 2.949749289728912e+02
90, 1.789999939500000e-02, -2.241364555514381e-02, 1.328510035115251e+00, 2.665163777651223e+02, -1.553363905394216e+02, 3.201235535715683e+05, 1.137235418601524e+05, 2.982056606511232e+02
91, 1.394999958600000e-02, -1.994492353858276e-02, 1.368315427125185e+00, 2.454804017457837e+02, -1.651272839304154e+02, 3.283140710749442e+05, 1.185321385950495e+05, 3.017729038875412e+02
92, 1.049000024800000e-02, -1.742916196961543e-02, 1.412799764377316e+00, 2.186896716787690e+02, -1.726852795865102e+02, 3.374035818867037e+05, 1.239697295788162e+05, 3.056788461587831e+02
93, 7.519999985000000e-03, -1.486756313872443e-02, 1.461584573921865e+00, 1.852337508078000e+02, -1.756776327886211e+02, 3.473022098909138e+05, 1.300025942776974e+05, 3.098549322603897e+02
94, 5.040000193000000e-03, -1.226032473458219e-02, 1.513193048273088e+00, 1.447516877877505e+02, -1.703988935290895e+02, 3.576896271341346e+05, 1.364687845457046e+05, 3.141733416828777e+02
95, 3.049999941000000e-03, -9.605565346412577e-03, 1.565652974206126e+00, 9.906665474381299e+01, -1.520959799537756e+02, 3.682134627272140e+05, 1.430766121708283e+05, 3.183489971801658e+02
96, 1.560000004000000e-03, -6.917517506923035e-03, 1.609186114210356e+00, 5.364435417406619e+01, -1.170353008477006e+02, 3.768332802105538e+05, 1.486732671667449e+05, 3.218525499773121e+02
97, 5.600000150000000e-04, -4.173159738460802e-03, 1.647809891104856e+00, 1.691891928967253e+01, -6.251188493799023e+01, 3.847348736137416e+05, 1.533849118907313e+05, 3.242693351191236e+02
98, 5.999999800000000e-05, -1.375329724321098e-03, 1.653137714023912e+00, -4.061080191227792e-01, 3.026345695491282e+00, 3.856148592013402e+05, 1.542448156811065e+05, 3.250363162788761e+02
99, 0.000000000000000e+00, 0.000000000000000e+00, 1.635974318667369e+00, 1.177032120225566e-12, 4.990326567283667e+01, 3.818279491928731e+05, 1.524267328534555e+05, 3.245749541291129e+02
100, 5.999999800000000e-05, 1.375329724321098e-03, 1.634232094896541e+00, 1.291855469754813e+01, 9.626998374795339e+01, 3.820288399569137e+05, 1.516568898519291e+05, 3.232799387955044e+02
101, 5.600000150000000e-04, 4.173159738460802e-03, 1.597368488827175e+00, 4.267675159296138e+01, 1.576817135556955e+02, 3.749917166823131e+05, 1.466555880969817e+05, 3.198334245462898e+02
102, 1.560000004000000e-03, 6.917517506923035e-03, 1.520039730516469e+00, 9.203221744266408e+01, 2.007856823316806e+02, 3.591522837322166e+05, 1.372420261049581e+05, 3.145303271242950e+02
103, 3.049999941000000e-03, 9.605565346412577e-03, 1.449886176295397e+00, 1.437130302469359e+02, 2.206410847732578e+02, 3.450348741555744e+05, 1.284496232362979e+05, 3.086236980789195e+02
104, 5.040000193000000e-03, 1.226032473458219e-02, 1.378432860371603e+00, 1.900164875745983e+02, 2.236837423441330e+02, 3.304632686877015e+05, 1.196869574116554e+05, 3.024764410423561e+02
