"PointID","x","y","Temperature"
0, 1.788837142111124e-02, 1.207338062991709e-03, 3.502724233335563e+02
1, 1.788496201658037e-02, 1.256983673166757e-03, 3.502746364708564e+02
2, 1.787696945302761e-02, 1.306099916540403e-03, 3.502806109939733e+02
3, 1.786390900684999e-02, 1.354113301568987e-03, 3.502902552046318e+02
4, 1.784625956505336e-02, 1.400640304091272e-03, 3.503037585783592e+02
5, 1.782403954365910e-02, 1.445163739270439e-03, 3.503213722076529e+02
6, 1.779750946260417e-02, 1.487260544268477e-03, 3.503436333905486e+02
7, 1.776687271188969e-02, 1.526472268813579e-03, 3.503711147017678e+02
8, 1.773264754329716e-02, 1.562591500797206e-03, 3.504043936560359e+02
9, 1.769483214877266e-02, 1.594933028157277e-03, 3.504439054800610e+02
10, 1.765406247537063e-02, 1.623462090315494e-03, 3.504907628092635e+02
11, 1.761060401824044e-02, 1.647696689073564e-03, 3.505462942419902e+02
12, 1.756499647447787e-02, 1.667596697688523e-03, 3.506120788919789e+02
13, 1.751760785428288e-02, 1.682770376439361e-03, 3.506899769172088e+02
14, 1.746896496131752e-02, 1.693254384030838e-03, 3.507826654753473e+02
15, 1.741951315173414e-02, 1.698769316633058e-03, 3.508943627266027e+02
16, 1.736975509079058e-02, 1.699989016979906e-03, 3.510331813654014e+02
17, 1.731997177804789e-02, 1.700000000000000e-03, 3.512072399677585e+02
18, 1.727018844676583e-02, 1.700000000000000e-03, 3.514173514263869e+02
19, 1.722040511548377e-02, 1.700000000000000e-03, 3.516613275989764e+02
20, 1.717062178420171e-02, 1.700000000000000e-03, 3.519360506215383e+02
21, 1.712083845291965e-02, 1.700000000000000e-03, 3.522376767888856e+02
22, 1.707105512163759e-02, 1.700000000000000e-03, 3.525617597105431e+02
23, 1.702127179035554e-02, 1.700000000000000e-03, 3.529039164330806e+02
24, 1.697148845907348e-02, 1.700000000000000e-03, 3.532602431832719e+02
25, 1.692170512779142e-02, 1.700000000000000e-03, 3.536273487557468e+02
26, 1.687192179650936e-02, 1.700000000000000e-03, 3.540024231180053e+02
27, 1.682213846522730e-02, 1.700000000000000e-03, 3.543832173048643e+02
28, 1.677235513394524e-02, 1.700000000000000e-03, 3.547679746521913e+02
29, 1.672257180266318e-02, 1.700000000000000e-03, 3.551553448681122e+02
30, 1.667278847138112e-02, 1.700000000000000e-03, 3.555443008800193e+02
31, 1.662300514009906e-02, 1.700000000000000e-03, 3.559340666721446e+02
32, 1.657322180881701e-02, 1.700000000000000e-03, 3.563240581873284e+02
33, 1.652343847753494e-02, 1.700000000000000e-03, 3.567138365661394e+02
34, 1.647365514625289e-02, 1.700000000000000e-03, 3.571030719385842e+02
35, 1.642387181497083e-02, 1.700000000000000e-03, 3.574915157833183e+02
36, 1.637408848368877e-02, 1.700000000000000e-03, 3.578789800369909e+02
37, 1.632430515240671e-02, 1.700000000000000e-03, 3.582653214218792e+02
38, 1.627452182112465e-02, 1.700000000000000e-03, 3.586504297546364e+02
39, 1.622473848984260e-02, 1.700000000000000e-03, 3.590342192626173e+02
40, 1.617495515856053e-02, 1.700000000000000e-03, 3.594166221553709e+02
41, 1.612517182727848e-02, 1.700000000000000e-03, 3.597975838774939e+02
42, 1.607538849599642e-02, 1.700000000000000e-03, 3.601770596096524e+02
43, 1.602560516471436e-02, 1.700000000000000e-03, 3.605550116932030e+02
44, 1.597582183343230e-02, 1.700000000000000e-03, 3.609314077366292e+02
45, 1.592603850215024e-02, 1.700000000000000e-03, 3.613062192244178e+02
46, 1.587625517086818e-02, 1.700000000000000e-03, 3.616794204957253e+02
47, 1.582647183958612e-02, 1.700000000000000e-03, 3.620509879949478e+02
48, 1.577668850830406e-02, 1.700000000000000e-03, 3.624208997220858e+02
49, 1.572690517702201e-02, 1.700000000000000e-03, 3.627891348298434e+02
50, 1.567712184573995e-02, 1.700000000000000e-03, 3.631556733284575e+02
51, 1.562733851445789e-02, 1.700000000000000e-03, 3.635204958695934e+02
52, 1.557755518317583e-02, 1.700000000000000e-03, 3.638835835882626e+02
53, 1.552777185189377e-02, 1.700000000000000e-03, 3.642449179873116e+02
54, 1.547798852061171e-02, 1.700000000000000e-03, 3.646044808531385e+02
55, 1.542820518932965e-02, 1.700000000000000e-03, 3.649622541943178e+02
56, 1.537842185804760e-02, 1.700000000000000e-03, 3.653182201970266e+02
57, 1.532863852676554e-02, 1.700000000000000e-03, 3.656723611927910e+02
58, 1.527885519548348e-02, 1.700000000000000e-03, 3.660246596352677e+02
59, 1.522907186420142e-02, 1.700000000000000e-03, 3.663750980836493e+02
60, 1.517928853291936e-02, 1.700000000000000e-03, 3.667236591909259e+02
61, 1.512950520163730e-02, 1.700000000000000e-03, 3.670703256957042e+02
62, 1.507972187035524e-02, 1.700000000000000e-03, 3.674150804166343e+02
63, 1.502993853907318e-02, 1.700000000000000e-03, 3.677579062487465e+02
64, 1.498015520779113e-02, 1.700000000000000e-03, 3.680987861611847e+02
65, 1.493037187650907e-02, 1.700000000000000e-03, 3.684377031959639e+02
66, 1.488058854522701e-02, 1.700000000000000e-03, 3.687746404674738e+02
67, 1.483080521394495e-02, 1.700000000000000e-03, 3.691095811625284e+02
68, 1.478102188266289e-02, 1.700000000000000e-03, 3.694425085408140e+02
69, 1.473123855138083e-02, 1.700000000000000e-03, 3.697734059356253e+02
70, 1.468145522009878e-02, 1.700000000000000e-03, 3.701022567548117e+02
71, 1.463167188881672e-02, 1.700000000000000e-03, 3.704290444818751e+02
72, 1.458188855753466e-02, 1.700000000000000e-03, 3.707537526771756e+02
73, 1.453210522625259e-02, 1.700000000000000e-03, 3.710763649792152e+02
74, 1.448232189497054e-02, 1.700000000000000e-03, 3.713968651059749e+02
75, 1.443253856368848e-02, 1.700000000000000e-03, 3.717152368562905e+02
76, 1.438275523240642e-02, 1.700000000000000e-03, 3.720314641112517e+02
77, 1.433297190112437e-02, 1.700000000000000e-03, 3.723455308356178e+02
78, 1.428318856984230e-02, 1.700000000000000e-03, 3.726574210792439e+02
79, 1.423340523856025e-02, 1.700000000000000e-03, 3.729671189785088e+02
80, 1.418362190727819e-02, 1.700000000000000e-03, 3.732746087577465e+02
81, 1.413383857599613e-02, 1.700000000000000e-03, 3.735798747306734e+02
82, 1.408405524471407e-02, 1.700000000000000e-03, 3.738829013018130e+02
83, 1.403427191343201e-02, 1.700000000000000e-03, 3.741836729679146e+02
84, 1.398448858214995e-02, 1.700000000000000e-03, 3.744821743193659e+02
85, 1.393470525086789e-02, 1.700000000000000e-03, 3.747783900415976e+02
86, 1.388492191958583e-02, 1.700000000000000e-03, 3.750723049164808e+02
87, 1.383513858830377e-02, 1.700000000000000e-03, 3.753639038237158e+02
88, 1.378535525702172e-02, 1.700000000000000e-03, 3.756531717422109e+02
89, 1.373557192573966e-02, 1.700000000000000e-03, 3.759400937514544e+02
90, 1.368578859445760e-02, 1.700000000000000e-03, 3.762246550328748e+02
91, 1.363600526317554e-02, 1.700000000000000e-03, 3.765068408711930e+02
92, 1.358622193189348e-02, 1.700000000000000e-03, 3.767866366557637e+02
93, 1.353643860061142e-02, 1.700000000000000e-03, 3.770640278819077e+02
94, 1.348665526932936e-02, 1.700000000000000e-03, 3.773390001522336e+02
95, 1.343687193804731e-02, 1.700000000000000e-03, 3.776115391779490e+02
96, 1.338708860676525e-02, 1.700000000000000e-03, 3.778816307801625e+02
97, 1.333730527548319e-02, 1.700000000000000e-03, 3.781492608911735e+02
98, 1.328752194420113e-02, 1.700000000000000e-03, 3.784144155557533e+02
99, 1.323773861291907e-02, 1.700000000000000e-03, 3.786770809324139e+02
100, 1.318795528163701e-02, 1.700000000000000e-03, 3.789372432946669e+02
101, 1.313817195035496e-02, 1.700000000000000e-03, 3.791948890322714e+02
102, 1.308838861907290e-02, 1.700000000000000e-03, 3.794500046524703e+02
103, 1.303860528779083e-02, 1.700000000000000e-03, 3.797025767812167e+02
104, 1.298882195650878e-02, 1.700000000000000e-03, 3.799525921643870e+02
105, 1.293903862522672e-02, 1.700000000000000e-03, 3.802000376689853e+02
106, 1.288925529394466e-02, 1.700000000000000e-03, 3.804449002843342e+02
107, 1.283947196266260e-02, 1.700000000000000e-03, 3.806871671232545e+02
108, 1.278968863138054e-02, 1.700000000000000e-03, 3.809268254232347e+02
109, 1.273990530009849e-02, 1.700000000000000e-03, 3.811638625475863e+02
110, 1.269012196881643e-02, 1.700000000000000e-03, 3.813982659865894e+02
111, 1.264033863753437e-02, 1.700000000000000e-03, 3.816300233586249e+02
112, 1.259055530625230e-02, 1.700000000000000e-03, 3.818591224112951e+02
113, 1.254077197497025e-02, 1.700000000000000e-03, 3.820855510225321e+02
114, 1.249098864368819e-02, 1.700000000000000e-03, 3.823092972016937e+02
115, 1.244120531240613e-02, 1.700000000000000e-03, 3.825303490906470e+02
116, 1.239142198112408e-02, 1.700000000000000e-03, 3.827486949648386e+02
117, 1.234163864984202e-02, 1.700000000000000e-03, 3.829643232343532e+02
118, 1.229185531855996e-02, 1.700000000000000e-03, 3.831772224449581e+02
119, 1.224207198727789e-02, 1.700000000000000e-03, 3.833873812791352e+02
120, 1.219228865599584e-02, 1.700000000000000e-03, 3.835947885570992e+02
121, 1.214250532471378e-02, 1.700000000000000e-03, 3.837994332378025e+02
122, 1.209272199343172e-02, 1.700000000000000e-03, 3.840013044199264e+02
123, 1.204293866214966e-02, 1.700000000000000e-03, 3.842003913428573e+02
124, 1.199315533086760e-02, 1.700000000000000e-03, 3.843966833876492e+02
125, 1.194337199958554e-02, 1.700000000000000e-03, 3.845901700779708e+02
126, 1.189358866830349e-02, 1.700000000000000e-03, 3.847808410810368e+02
127, 1.184380533702143e-02, 1.700000000000000e-03, 3.849686862085238e+02
128, 1.179402200573937e-02, 1.700000000000000e-03, 3.851536954174685e+02
129, 1.174423867445731e-02, 1.700000000000000e-03, 3.853358588111476e+02
130, 1.169445534317526e-02, 1.700000000000000e-03, 3.855151666399394e+02
131, 1.164467201189319e-02, 1.700000000000000e-03, 3.856916093021634e+02
132, 1.159488868061113e-02, 1.700000000000000e-03, 3.858651773448971e+02
133, 1.154510534932907e-02, 1.700000000000000e-03, 3.860358614647666e+02
134, 1.149532201804702e-02, 1.700000000000000e-03, 3.862036525087084e+02
135, 1.144553868676496e-02, 1.700000000000000e-03, 3.863685414746953e+02
136, 1.139575535548290e-02, 1.700000000000000e-03, 3.865305195124227e+02
137, 1.134597202420084e-02, 1.700000000000000e-03, 3.866895779239453e+02
138, 1.129618869291878e-02, 1.700000000000000e-03, 3.868457081642529e+02
139, 1.124640536163672e-02, 1.700000000000000e-03, 3.869989018417720e+02
140, 1.119662203035466e-02, 1.700000000000000e-03, 3.871491507187705e+02
141, 1.114683869907260e-02, 1.700000000000000e-03, 3.872964467116409e+02
142, 1.109705536779055e-02, 1.700000000000000e-03, 3.874407818910248e+02
143, 1.104727203650849e-02, 1.700000000000000e-03, 3.875821484817301e+02
144, 1.099748870522643e-02, 1.700000000000000e-03, 3.877205388623753e+02
145, 1.094770537394437e-02, 1.700000000000000e-03, 3.878559455646716e+02
146, 1.089792204266231e-02, 1.700000000000000e-03, 3.879883612722234e+02
147, 1.084813871138025e-02, 1.700000000000000e-03, 3.881177788186843e+02
148, 1.079835538009820e-02, 1.700000000000000e-03, 3.882441911850479e+02
149, 1.074857204881614e-02, 1.700000000000000e-03, 3.883675914957753e+02
150, 1.069878871753407e-02, 1.700000000000000e-03, 3.884879730133529e+02
151, 1.064900538625202e-02, 1.700000000000000e-03, 3.886053291307301e+02
152, 1.059922205496996e-02, 1.700000000000000e-03, 3.887196533608868e+02
153, 1.054943872368790e-02, 1.700000000000000e-03, 3.888309393225068e+02
154, 1.049965539240584e-02, 1.700000000000000e-03, 3.889391807203646e+02
155, 1.044987206112379e-02, 1.700000000000000e-03, 3.890443713185091e+02
156, 1.040008872984173e-02, 1.700000000000000e-03, 3.891465049036190e+02
157, 1.035030539855967e-02, 1.700000000000000e-03, 3.892455752348997e+02
158, 1.030052206727761e-02, 1.700000000000000e-03, 3.893415759754853e+02
159, 1.025073873599555e-02, 1.700000000000000e-03, 3.894345005983103e+02
160, 1.020095540471349e-02, 1.700000000000000e-03, 3.895243422565417e+02
161, 1.015117207343143e-02, 1.700000000000000e-03, 3.896110936044810e+02
162, 1.010138874214937e-02, 1.700000000000000e-03, 3.896947465485916e+02
163, 1.005160541086732e-02, 1.700000000000000e-03, 3.897752918987053e+02
164, 1.000182207958526e-02, 1.700000000000000e-03, 3.898527188740895e+02
165, 9.952038748303192e-03, 1.700000000000000e-03, 3.899270143935003e+02
166, 9.902255417021133e-03, 1.700000000000000e-03, 3.899981620339538e+02
167, 9.852472085739075e-03, 1.700000000000000e-03, 3.900661404616628e+02
168, 9.802688754457018e-03, 1.700000000000000e-03, 3.901309209791659e+02
169, 9.752905423174961e-03, 1.700000000000000e-03, 3.901924634970260e+02
170, 9.703122091892901e-03, 1.700000000000000e-03, 3.902507094773164e+02
171, 9.653338760610846e-03, 1.700000000000000e-03, 3.903055685273321e+02
172, 9.603555429328784e-03, 1.700000000000000e-03, 3.903568899615673e+02
173, 9.553772098046729e-03, 1.700000000000000e-03, 3.904043856737491e+02
174, 9.503989057175503e-03, 1.699955982134311e-03, 3.904472723828724e+02
175, 9.454275842183182e-03, 1.697704654976501e-03, 3.904844700867157e+02
176, 9.405008701162915e-03, 1.690730360103608e-03, 3.905163025584729e+02
177, 9.356696153012300e-03, 1.678816441340789e-03, 3.905440673360304e+02
178, 9.309776247039193e-03, 1.662250180011833e-03, 3.905685194915790e+02
179, 9.264774877383078e-03, 1.641014982593511e-03, 3.905900376840686e+02
180, 9.222049989124148e-03, 1.615509404937148e-03, 3.906090220263678e+02
181, 9.182137851242509e-03, 1.585792511771305e-03, 3.906256325782918e+02
182, 9.145296108395384e-03, 1.552346721462857e-03, 3.906401286606247e+02
183, 9.112178310468667e-03, 1.515205939522626e-03, 3.906525254014309e+02
184, 9.082681181085536e-03, 1.475129938975062e-03, 3.906631706570824e+02
185, 9.057448935201343e-03, 1.432244804039600e-03, 3.906719416157820e+02
186, 9.036542415582337e-03, 1.387088084835689e-03, 3.906790210586776e+02
187, 9.020248664704125e-03, 1.340069839782873e-03, 3.906844257394929e+02
188, 9.008674149188659e-03, 1.291676299431707e-03, 3.906882086392904e+02
189, 9.002094049030214e-03, 1.242350963581405e-03, 3.906903328554167e+02
190, 9.000152396372736e-03, 1.192627640605074e-03, 3.906909846310101e+02
191, 9.003510091621352e-03, 1.142979742007475e-03, 3.906899010972855e+02
192, 9.011584288462582e-03, 1.093878114340080e-03, 3.906873001977347e+02
193, 9.024662971860345e-03, 1.045866853129453e-03, 3.906830197112311e+02
194, 9.042273456412547e-03, 9.993264411832458e-04, 3.906771803547841e+02
195, 9.064560261261467e-03, 9.548361961428300e-04, 3.906696077544719e+02
196, 9.091013637581653e-03, 9.126895814843071e-04, 3.906603721305851e+02
197, 9.121633282984577e-03, 8.734661651234564e-04, 3.906492728436284e+02
198, 9.155904517245956e-03, 8.373899026191695e-04, 3.906363152084181e+02
199, 9.193712560460129e-03, 8.050397151840168e-04, 3.906212326999564e+02
200, 9.234477201294857e-03, 7.765035272665616e-04, 3.906039805108465e+02
201, 9.277933306597066e-03, 7.522647900687473e-04, 3.905842756180002e+02
202, 9.323540403657560e-03, 7.323638488030061e-04, 3.905619409853110e+02
203, 9.370929858916752e-03, 7.171929049722545e-04, 3.905365466801351e+02
204, 9.419574111005288e-03, 7.067153823160402e-04, 3.905076606381834e+02
205, 9.469027061077970e-03, 7.012111024328067e-04, 3.904743733857670e+02
206, 9.518785589168292e-03, 7.000103488644843e-04, 3.904353834907624e+02
207, 9.568568903398555e-03, 6.999999999999997e-04, 3.903910004462849e+02
208, 9.618352234089177e-03, 6.999999999999997e-04, 3.903423082587613e+02
209, 9.668135564779799e-03, 6.999999999999997e-04, 3.902898917537558e+02
210, 9.717918895470419e-03, 6.999999999999997e-04, 3.902339878526395e+02
211, 9.767702226161041e-03, 6.999999999999997e-04, 3.901747273333933e+02
212, 9.817485556851663e-03, 6.999999999999997e-04, 3.901121906978273e+02
213, 9.867268887542285e-03, 6.999999999999997e-04, 3.900464309574419e+02
214, 9.917052218232907e-03, 6.999999999999997e-04, 3.899774847986776e+02
215, 9.966835548923528e-03, 6.999999999999997e-04, 3.899053786407956e+02
216, 1.001661887961415e-02, 6.999999999999997e-04, 3.898301321909344e+02
217, 1.006640221030477e-02, 6.999999999999997e-04, 3.897517606583405e+02
218, 1.011618554099539e-02, 6.999999999999997e-04, 3.896702761936491e+02
219, 1.016596887168602e-02, 6.999999999999997e-04, 3.895856888532525e+02
220, 1.021575220237664e-02, 6.999999999999997e-04, 3.894980072595268e+02
221, 1.026553553306726e-02, 6.999999999999997e-04, 3.894072390598306e+02
222, 1.031531886375788e-02, 6.999999999999997e-04, 3.893133912492557e+02
223, 1.036510219444850e-02, 6.999999999999997e-04, 3.892164703995852e+02
224, 1.041488552513912e-02, 6.999999999999997e-04, 3.891164828228516e+02
225, 1.046466885582975e-02, 6.999999999999997e-04, 3.890134346887984e+02
226, 1.051445218652037e-02, 6.999999999999997e-04, 3.889073321095524e+02
227, 1.056423551721099e-02, 6.999999999999997e-04, 3.887981812007959e+02
228, 1.061401884790161e-02, 6.999999999999997e-04, 3.886859881259997e+02
229, 1.066380217859223e-02, 6.999999999999997e-04, 3.885707591283959e+02
230, 1.071358550928285e-02, 6.999999999999997e-04, 3.884525005540477e+02
231, 1.076336883997348e-02, 6.999999999999997e-04, 3.883312188684465e+02
232, 1.081315217066410e-02, 6.999999999999997e-04, 3.882069206683943e+02
233, 1.086293550135472e-02, 6.999999999999997e-04, 3.880796126904502e+02
234, 1.091271883204534e-02, 6.999999999999997e-04, 3.879493018168725e+02
235, 1.096250216273596e-02, 6.999999999999997e-04, 3.878159950797348e+02
236, 1.101228549342658e-02, 6.999999999999997e-04, 3.876796996637092e+02
237, 1.106206882411720e-02, 6.999999999999997e-04, 3.875404229078788e+02
238, 1.111185215480783e-02, 6.999999999999997e-04, 3.873981723068395e+02
239, 1.116163548549845e-02, 6.999999999999997e-04, 3.872529555112851e+02
240, 1.121141881618907e-02, 6.999999999999997e-04, 3.871047803282132e+02
241, 1.126120214687969e-02, 6.999999999999997e-04, 3.869536547208545e+02
242, 1.131098547757031e-02, 6.999999999999997e-04, 3.867995868083976e+02
243, 1.136076880826094e-02, 6.999999999999997e-04, 3.866425848655653e+02
244, 1.141055213895156e-02, 6.999999999999997e-04, 3.864826573220785e+02
245, 1.146033546964218e-02, 6.999999999999997e-04, 3.863198127620381e+02
246, 1.151011880033280e-02, 6.999999999999997e-04, 3.861540599232433e+02
247, 1.155990213102342e-02, 6.999999999999997e-04, 3.859854076964633e+02
248, 1.160968546171404e-02, 6.999999999999997e-04, 3.858138651246693e+02
249, 1.165946879240467e-02, 6.999999999999997e-04, 3.856394414022390e+02
250, 1.170925212309529e-02, 6.999999999999997e-04, 3.854621458741345e+02
251, 1.175903545378591e-02, 6.999999999999997e-04, 3.852819880350604e+02
252, 1.180881878447653e-02, 6.999999999999997e-04, 3.850989775286037e+02
253, 1.185860211516715e-02, 6.999999999999997e-04, 3.849131241463569e+02
254, 1.190838544585777e-02, 6.999999999999997e-04, 3.847244378270274e+02
255, 1.195816877654840e-02, 6.999999999999997e-04, 3.845329286555313e+02
256, 1.200795210723902e-02, 6.999999999999997e-04, 3.843386068620753e+02
257, 1.205773543792964e-02, 6.999999999999997e-04, 3.841414828212245e+02
258, 1.210751876862026e-02, 6.999999999999997e-04, 3.839415670509586e+02
259, 1.215730209931088e-02, 6.999999999999997e-04, 3.837388702117139e+02
260, 1.220708543000150e-02, 6.999999999999997e-04, 3.835334031054153e+02
261, 1.225686876069213e-02, 6.999999999999997e-04, 3.833251766744936e+02
262, 1.230665209138275e-02, 6.999999999999997e-04, 3.831142020008922e+02
263, 1.235643542207337e-02, 6.999999999999997e-04, 3.829004903050608e+02
264, 1.240621875276399e-02, 6.999999999999997e-04, 3.826840529449367e+02
265, 1.245600208345461e-02, 6.999999999999997e-04, 3.824649014149149e+02
266, 1.250578541414523e-02, 6.999999999999997e-04, 3.822430473448050e+02
267, 1.255556874483586e-02, 6.999999999999997e-04, 3.820185024987767e+02
268, 1.260535207552648e-02, 6.999999999999997e-04, 3.817912787742929e+02
269, 1.265513540621710e-02, 6.999999999999997e-04, 3.815613882010308e+02
270, 1.270491873690772e-02, 6.999999999999997e-04, 3.813288429397908e+02
271, 1.275470206759834e-02, 6.999999999999997e-04, 3.810936552813945e+02
272, 1.280448539828897e-02, 6.999999999999997e-04, 3.808558376455694e+02
273, 1.285426872897959e-02, 6.999999999999997e-04, 3.806154025798224e+02
274, 1.290405205967021e-02, 6.999999999999997e-04, 3.803723627583022e+02
