"PointID","x","y","Temperature"
0, 1.788837142111124e-02, 1.207338062991709e-03, 3.504197023479001e+02
1, 1.788496201658037e-02, 1.256983673166757e-03, 3.504240425110804e+02
2, 1.787696945302761e-02, 1.306099916540403e-03, 3.504355863202256e+02
3, 1.786390900684999e-02, 1.354113301568987e-03, 3.504542915550004e+02
4, 1.784625956505336e-02, 1.400640304091272e-03, 3.504804718577123e+02
5, 1.782403954365910e-02, 1.445163739270439e-03, 3.505146483374604e+02
6, 1.779750946260417e-02, 1.487260544268477e-03, 3.505578355023699e+02
7, 1.776687271188969e-02, 1.526472268813579e-03, 3.506111537960110e+02
8, 1.773264754329716e-02, 1.562591500797206e-03, 3.506756706823125e+02
9, 1.769483214877266e-02, 1.594933028157277e-03, 3.507523603243578e+02
10, 1.765406247537063e-02, 1.623462090315494e-03, 3.508433002503310e+02
11, 1.761060401824044e-02, 1.647696689073564e-03, 3.509510972619331e+02
12, 1.756499647447787e-02, 1.667596697688523e-03, 3.510787656487425e+02
13, 1.751760785428288e-02, 1.682770376439361e-03, 3.512299603307472e+02
14, 1.746896496131752e-02, 1.693254384030838e-03, 3.514098371889183e+02
15, 1.741951315173414e-02, 1.698769316633058e-03, 3.516266059971505e+02
16, 1.736975509079058e-02, 1.699989016979906e-03, 3.518958149115199e+02
17, 1.731997177804789e-02, 1.700000000000000e-03, 3.522324898405245e+02
18, 1.727018844676583e-02, 1.700000000000000e-03, 3.526379869092987e+02
19, 1.722040511548377e-02, 1.700000000000000e-03, 3.531082237443321e+02
20, 1.717062178420171e-02, 1.700000000000000e-03, 3.536373886178702e+02
21, 1.712083845291965e-02, 1.700000000000000e-03, 3.542182794997192e+02
22, 1.707105512163759e-02, 1.700000000000000e-03, 3.548425193255187e+02
23, 1.702127179035554e-02, 1.700000000000000e-03, 3.555018200634362e+02
24, 1.697148845907348e-02, 1.700000000000000e-03, 3.561887878800275e+02
25, 1.692170512779142e-02, 1.700000000000000e-03, 3.568969879380478e+02
26, 1.687192179650936e-02, 1.700000000000000e-03, 3.576210781633936e+02
27, 1.682213846522730e-02, 1.700000000000000e-03, 3.583567743529353e+02
28, 1.677235513394524e-02, 1.700000000000000e-03, 3.591007224704012e+02
29, 1.672257180266318e-02, 1.700000000000000e-03, 3.598503373618517e+02
30, 1.667278847138112e-02, 1.700000000000000e-03, 3.606036460474672e+02
31, 1.662300514009906e-02, 1.700000000000000e-03, 3.613591514271054e+02
32, 1.657322180881701e-02, 1.700000000000000e-03, 3.621157204958429e+02
33, 1.652343847753494e-02, 1.700000000000000e-03, 3.628724958009415e+02
34, 1.647365514625289e-02, 1.700000000000000e-03, 3.636288268293635e+02
35, 1.642387181497083e-02, 1.700000000000000e-03, 3.643842176058072e+02
36, 1.637408848368877e-02, 1.700000000000000e-03, 3.651382870775423e+02
37, 1.632430515240671e-02, 1.700000000000000e-03, 3.658907393909117e+02
38, 1.627452182112465e-02, 1.700000000000000e-03, 3.666413417170163e+02
39, 1.622473848984260e-02, 1.700000000000000e-03, 3.673899077816019e+02
40, 1.617495515856053e-02, 1.700000000000000e-03, 3.681362856726582e+02
41, 1.612517182727848e-02, 1.700000000000000e-03, 3.688803488376627e+02
42, 1.607538849599642e-02, 1.700000000000000e-03, 3.696219894489482e+02
43, 1.602560516471436e-02, 1.700000000000000e-03, 3.703611135216147e+02
44, 1.597582183343230e-02, 1.700000000000000e-03, 3.710976373253490e+02
45, 1.592603850215024e-02, 1.700000000000000e-03, 3.718314847498577e+02
46, 1.587625517086818e-02, 1.700000000000000e-03, 3.725625853722091e+02
47, 1.582647183958612e-02, 1.700000000000000e-03, 3.732908730403183e+02
48, 1.577668850830406e-02, 1.700000000000000e-03, 3.740162848357029e+02
49, 1.572690517702201e-02, 1.700000000000000e-03, 3.747387603147760e+02
50, 1.567712184573995e-02, 1.700000000000000e-03, 3.754582409546098e+02
51, 1.562733851445789e-02, 1.700000000000000e-03, 3.761746697487370e+02
52, 1.557755518317583e-02, 1.700000000000000e-03, 3.768879909130175e+02
53, 1.552777185189377e-02, 1.700000000000000e-03, 3.775981496722090e+02
54, 1.547798852061171e-02, 1.700000000000000e-03, 3.783050921056958e+02
55, 1.542820518932965e-02, 1.700000000000000e-03, 3.790087650365573e+02
56, 1.537842185804760e-02, 1.700000000000000e-03, 3.797091159523695e+02
57, 1.532863852676554e-02, 1.700000000000000e-03, 3.804060929492211e+02
58, 1.527885519548348e-02, 1.700000000000000e-03, 3.810996446926926e+02
59, 1.522907186420142e-02, 1.700000000000000e-03, 3.817897203912148e+02
60, 1.517928853291936e-02, 1.700000000000000e-03, 3.824762697784381e+02
61, 1.512950520163730e-02, 1.700000000000000e-03, 3.831592431021461e+02
62, 1.507972187035524e-02, 1.700000000000000e-03, 3.838385911178992e+02
63, 1.502993853907318e-02, 1.700000000000000e-03, 3.845142650860803e+02
64, 1.498015520779113e-02, 1.700000000000000e-03, 3.851862167713653e+02
65, 1.493037187650907e-02, 1.700000000000000e-03, 3.858543984439038e+02
66, 1.488058854522701e-02, 1.700000000000000e-03, 3.865187628816822e+02
67, 1.483080521394495e-02, 1.700000000000000e-03, 3.871792633736860e+02
68, 1.478102188266289e-02, 1.700000000000000e-03, 3.878358537235749e+02
69, 1.473123855138083e-02, 1.700000000000000e-03, 3.884884882536657e+02
70, 1.468145522009878e-02, 1.700000000000000e-03, 3.891371218090678e+02
71, 1.463167188881672e-02, 1.700000000000000e-03, 3.897817097618605e+02
72, 1.458188855753466e-02, 1.700000000000000e-03, 3.904222080152288e+02
73, 1.453210522625259e-02, 1.700000000000000e-03, 3.910585730074985e+02
74, 1.448232189497054e-02, 1.700000000000000e-03, 3.916907617160235e+02
75, 1.443253856368848e-02, 1.700000000000000e-03, 3.923187316608982e+02
76, 1.438275523240642e-02, 1.700000000000000e-03, 3.929424409084631e+02
77, 1.433297190112437e-02, 1.700000000000000e-03, 3.935618480745943e+02
78, 1.428318856984230e-02, 1.700000000000000e-03, 3.941769123277598e+02
79, 1.423340523856025e-02, 1.700000000000000e-03, 3.947875933918332e+02
80, 1.418362190727819e-02, 1.700000000000000e-03, 3.953938515486631e+02
81, 1.413383857599613e-02, 1.700000000000000e-03, 3.959956476403873e+02
82, 1.408405524471407e-02, 1.700000000000000e-03, 3.965929430714943e+02
83, 1.403427191343201e-02, 1.700000000000000e-03, 3.971856998106281e+02
84, 1.398448858214995e-02, 1.700000000000000e-03, 3.977738803921355e+02
85, 1.393470525086789e-02, 1.700000000000000e-03, 3.983574479173563e+02
86, 1.388492191958583e-02, 1.700000000000000e-03, 3.989363660556563e+02
87, 1.383513858830377e-02, 1.700000000000000e-03, 3.995105990452050e+02
88, 1.378535525702172e-02, 1.700000000000000e-03, 4.000801116934982e+02
89, 1.373557192573966e-02, 1.700000000000000e-03, 4.006448693776280e+02
90, 1.368578859445760e-02, 1.700000000000000e-03, 4.012048380443003e+02
91, 1.363600526317554e-02, 1.700000000000000e-03, 4.017599842096054e+02
92, 1.358622193189348e-02, 1.700000000000000e-03, 4.023102749585404e+02
93, 1.353643860061142e-02, 1.700000000000000e-03, 4.028556779442882e+02
94, 1.348665526932936e-02, 1.700000000000000e-03, 4.033961613872546e+02
95, 1.343687193804731e-02, 1.700000000000000e-03, 4.039316940738680e+02
96, 1.338708860676525e-02, 1.700000000000000e-03, 4.044622453551435e+02
97, 1.333730527548319e-02, 1.700000000000000e-03, 4.049877851450145e+02
98, 1.328752194420113e-02, 1.700000000000000e-03, 4.055082839184369e+02
99, 1.323773861291907e-02, 1.700000000000000e-03, 4.060237127092681e+02
100, 1.318795528163701e-02, 1.700000000000000e-03, 4.065340431079248e+02
101, 1.313817195035496e-02, 1.700000000000000e-03, 4.070392472588242e+02
102, 1.308838861907290e-02, 1.700000000000000e-03, 4.075392978576116e+02
103, 1.303860528779083e-02, 1.700000000000000e-03, 4.080341681481801e+02
104, 1.298882195650878e-02, 1.700000000000000e-03, 4.085238319194845e+02
105, 1.293903862522672e-02, 1.700000000000000e-03, 4.090082635021575e+02
106, 1.288925529394466e-02, 1.700000000000000e-03, 4.094874377649282e+02
107, 1.283947196266260e-02, 1.700000000000000e-03, 4.099613301108511e+02
108, 1.278968863138054e-02, 1.700000000000000e-03, 4.104299164733499e+02
109, 1.273990530009849e-02, 1.700000000000000e-03, 4.108931733120791e+02
110, 1.269012196881643e-02, 1.700000000000000e-03, 4.113510776086119e+02
111, 1.264033863753437e-02, 1.700000000000000e-03, 4.118036068619554e+02
112, 1.259055530625230e-02, 1.700000000000000e-03, 4.122507390839019e+02
113, 1.254077197497025e-02, 1.700000000000000e-03, 4.126924527942196e+02
114, 1.249098864368819e-02, 1.700000000000000e-03, 4.131287270156905e+02
115, 1.244120531240613e-02, 1.700000000000000e-03, 4.135595412689963e+02
116, 1.239142198112408e-02, 1.700000000000000e-03, 4.139848755674641e+02
117, 1.234163864984202e-02, 1.700000000000000e-03, 4.144047104116724e+02
118, 1.229185531855996e-02, 1.700000000000000e-03, 4.148190267839259e+02
119, 1.224207198727789e-02, 1.700000000000000e-03, 4.152278061426039e+02
120, 1.219228865599584e-02, 1.700000000000000e-03, 4.156310304163877e+02
121, 1.214250532471378e-02, 1.700000000000000e-03, 4.160286819983747e+02
122, 1.209272199343172e-02, 1.700000000000000e-03, 4.164207437400814e+02
123, 1.204293866214966e-02, 1.700000000000000e-03, 4.168071989453449e+02
124, 1.199315533086760e-02, 1.700000000000000e-03, 4.171880313641254e+02
125, 1.194337199958554e-02, 1.700000000000000e-03, 4.175632251862178e+02
126, 1.189358866830349e-02, 1.700000000000000e-03, 4.179327650348756e+02
127, 1.184380533702143e-02, 1.700000000000000e-03, 4.182966359603539e+02
128, 1.179402200573937e-02, 1.700000000000000e-03, 4.186548234333749e+02
129, 1.174423867445731e-02, 1.700000000000000e-03, 4.190073133385226e+02
130, 1.169445534317526e-02, 1.700000000000000e-03, 4.193540919675679e+02
131, 1.164467201189319e-02, 1.700000000000000e-03, 4.196951460127299e+02
132, 1.159488868061113e-02, 1.700000000000000e-03, 4.200304625598739e+02
133, 1.154510534932907e-02, 1.700000000000000e-03, 4.203600290816489e+02
134, 1.149532201804702e-02, 1.700000000000000e-03, 4.206838334305622e+02
135, 1.144553868676496e-02, 1.700000000000000e-03, 4.210018638319908e+02
136, 1.139575535548290e-02, 1.700000000000000e-03, 4.213141088771207e+02
137, 1.134597202420084e-02, 1.700000000000000e-03, 4.216205575158089e+02
138, 1.129618869291878e-02, 1.700000000000000e-03, 4.219211990493487e+02
139, 1.124640536163672e-02, 1.700000000000000e-03, 4.222160231231200e+02
140, 1.119662203035466e-02, 1.700000000000000e-03, 4.225050197190916e+02
141, 1.114683869907260e-02, 1.700000000000000e-03, 4.227881791481314e+02
142, 1.109705536779055e-02, 1.700000000000000e-03, 4.230654920420630e+02
143, 1.104727203650849e-02, 1.700000000000000e-03, 4.233369493453852e+02
144, 1.099748870522643e-02, 1.700000000000000e-03, 4.236025423065356e+02
145, 1.094770537394437e-02, 1.700000000000000e-03, 4.238622624685412e+02
146, 1.089792204266231e-02, 1.700000000000000e-03, 4.241161016588381e+02
147, 1.084813871138025e-02, 1.700000000000000e-03, 4.243640519779645e+02
148, 1.079835538009820e-02, 1.700000000000000e-03, 4.246061057867252e+02
149, 1.074857204881614e-02, 1.700000000000000e-03, 4.248422556912814e+02
150, 1.069878871753407e-02, 1.700000000000000e-03, 4.250724945254212e+02
151, 1.064900538625202e-02, 1.700000000000000e-03, 4.252968153290002e+02
152, 1.059922205496996e-02, 1.700000000000000e-03, 4.255152113211768e+02
153, 1.054943872368790e-02, 1.700000000000000e-03, 4.257276758665637e+02
154, 1.049965539240584e-02, 1.700000000000000e-03, 4.259342024317338e+02
155, 1.044987206112379e-02, 1.700000000000000e-03, 4.261347845285688e+02
156, 1.040008872984173e-02, 1.700000000000000e-03, 4.263294156396232e+02
157, 1.035030539855967e-02, 1.700000000000000e-03, 4.265180891188326e+02
158, 1.030052206727761e-02, 1.700000000000000e-03, 4.267007980583021e+02
159, 1.025073873599555e-02, 1.700000000000000e-03, 4.268775351082076e+02
160, 1.020095540471349e-02, 1.700000000000000e-03, 4.270482922315234e+02
161, 1.015117207343143e-02, 1.700000000000000e-03, 4.272130603674953e+02
162, 1.010138874214937e-02, 1.700000000000000e-03, 4.273718289661244e+02
163, 1.005160541086732e-02, 1.700000000000000e-03, 4.275245853378971e+02
164, 1.000182207958526e-02, 1.700000000000000e-03, 4.276713137340107e+02
165, 9.952038748303192e-03, 1.700000000000000e-03, 4.278119940237275e+02
166, 9.902255417021133e-03, 1.700000000000000e-03, 4.279465997503702e+02
167, 9.852472085739075e-03, 1.700000000000000e-03, 4.280750951904439e+02
168, 9.802688754457018e-03, 1.700000000000000e-03, 4.281974307303975e+02
169, 9.752905423174961e-03, 1.700000000000000e-03, 4.283135352183845e+02
170, 9.703122091892901e-03, 1.700000000000000e-03, 4.284233024484213e+02
171, 9.653338760610846e-03, 1.700000000000000e-03, 4.285265652415724e+02
172, 9.603555429328784e-03, 1.700000000000000e-03, 4.286230400881624e+02
173, 9.553772098046729e-03, 1.700000000000000e-03, 4.287121774647009e+02
174, 9.503989057175503e-03, 1.699955982134311e-03, 4.287924804716356e+02
175, 9.454275842183182e-03, 1.697704654976501e-03, 4.288620353478347e+02
176, 9.405008701162915e-03, 1.690730360103608e-03, 4.289215864375742e+02
177, 9.356696153012300e-03, 1.678816441340789e-03, 4.289735456192282e+02
178, 9.309776247039193e-03, 1.662250180011833e-03, 4.290192991022853e+02
179, 9.264774877383078e-03, 1.641014982593511e-03, 4.290595673819936e+02
180, 9.222049989124148e-03, 1.615509404937148e-03, 4.290950822905784e+02
181, 9.182137851242509e-03, 1.585792511771305e-03, 4.291261655329547e+02
182, 9.145296108395384e-03, 1.552346721462857e-03, 4.291532810965930e+02
183, 9.112178310468667e-03, 1.515205939522626e-03, 4.291764915537784e+02
184, 9.082681181085536e-03, 1.475129938975062e-03, 4.291964024752836e+02
185, 9.057448935201343e-03, 1.432244804039600e-03, 4.292128189143518e+02
186, 9.036542415582337e-03, 1.387088084835689e-03, 4.292260654651981e+02
187, 9.020248664704125e-03, 1.340069839782873e-03, 4.292361836197291e+02
188, 9.008674149188659e-03, 1.291676299431707e-03, 4.292432649301434e+02
189, 9.002094049030214e-03, 1.242350963581405e-03, 4.292472529329534e+02
190, 9.000152396372736e-03, 1.192627640605074e-03, 4.292484619352646e+02
191, 9.003510091621352e-03, 1.142979742007475e-03, 4.292464511629741e+02
192, 9.011584288462582e-03, 1.093878114340080e-03, 4.292415837508074e+02
193, 9.024662971860345e-03, 1.045866853129453e-03, 4.292335902741925e+02
194, 9.042273456412547e-03, 9.993264411832458e-04, 4.292226696883451e+02
195, 9.064560261261467e-03, 9.548361961428300e-04, 4.292085260593030e+02
196, 9.091013637581653e-03, 9.126895814843071e-04, 4.291912621138725e+02
197, 9.121633282984577e-03, 8.734661651234564e-04, 4.291705247199646e+02
198, 9.155904517245956e-03, 8.373899026191695e-04, 4.291462967384707e+02
199, 9.193712560460129e-03, 8.050397151840168e-04, 4.291181012486246e+02
200, 9.234477201294857e-03, 7.765035272665616e-04, 4.290858279705811e+02
201, 9.277933306597066e-03, 7.522647900687473e-04, 4.290489696504690e+02
202, 9.323540403657560e-03, 7.323638488030061e-04, 4.290071743321060e+02
203, 9.370929858916752e-03, 7.171929049722545e-04, 4.289596568103338e+02
204, 9.419574111005288e-03, 7.067153823160402e-04, 4.289055985588118e+02
205, 9.469027061077970e-03, 7.012111024328067e-04, 4.288433314667016e+02
206, 9.518785589168292e-03, 7.000103488644843e-04, 4.287704095367517e+02
207, 9.568568903398555e-03, 6.999999999999997e-04, 4.286872334800171e+02
208, 9.618352234089177e-03, 6.999999999999997e-04, 4.285957926339271e+02
209, 9.668135564779799e-03, 6.999999999999997e-04, 4.284972064567997e+02
210, 9.717918895470419e-03, 6.999999999999997e-04, 4.283919262632848e+02
211, 9.767702226161041e-03, 6.999999999999997e-04, 4.282801977840635e+02
212, 9.817485556851663e-03, 6.999999999999997e-04, 4.281621697654616e+02
213, 9.867268887542285e-03, 6.999999999999997e-04, 4.280379382608618e+02
214, 9.917052218232907e-03, 6.999999999999997e-04, 4.279075681907601e+02
215, 9.966835548923528e-03, 6.999999999999997e-04, 4.277711049564367e+02
216, 1.001661887961415e-02, 6.999999999999997e-04, 4.276285812143686e+02
217, 1.006640221030477e-02, 6.999999999999997e-04, 4.274800210753912e+02
218, 1.011618554099539e-02, 6.999999999999997e-04, 4.273254428237307e+02
219, 1.016596887168602e-02, 6.999999999999997e-04, 4.271648607331473e+02
220, 1.021575220237664e-02, 6.999999999999997e-04, 4.269982863072518e+02
221, 1.026553553306726e-02, 6.999999999999997e-04, 4.268257291404426e+02
222, 1.031531886375788e-02, 6.999999999999997e-04, 4.266471975231054e+02
223, 1.036510219444850e-02, 6.999999999999997e-04, 4.264626988715497e+02
224, 1.041488552513912e-02, 6.999999999999997e-04, 4.262722400362487e+02
225, 1.046466885582975e-02, 6.999999999999997e-04, 4.260758275246247e+02
226, 1.051445218652037e-02, 6.999999999999997e-04, 4.258734676632468e+02
227, 1.056423551721099e-02, 6.999999999999997e-04, 4.256651667167359e+02
228, 1.061401884790161e-02, 6.999999999999997e-04, 4.254509309755517e+02
229, 1.066380217859223e-02, 6.999999999999997e-04, 4.252307668213207e+02
230, 1.071358550928285e-02, 6.999999999999997e-04, 4.250046807759152e+02
231, 1.076336883997348e-02, 6.999999999999997e-04, 4.247726795387604e+02
232, 1.081315217066410e-02, 6.999999999999997e-04, 4.245347700156100e+02
233, 1.086293550135472e-02, 6.999999999999997e-04, 4.242909593411417e+02
234, 1.091271883204534e-02, 6.999999999999997e-04, 4.240412548970806e+02
235, 1.096250216273596e-02, 6.999999999999997e-04, 4.237856643270912e+02
236, 1.101228549342658e-02, 6.999999999999997e-04, 4.235241955493404e+02
237, 1.106206882411720e-02, 6.999999999999997e-04, 4.232568567673849e+02
238, 1.111185215480783e-02, 6.999999999999997e-04, 4.229836564798591e+02
239, 1.116163548549845e-02, 6.999999999999997e-04, 4.227046034893061e+02
240, 1.121141881618907e-02, 6.999999999999997e-04, 4.224197069103997e+02
241, 1.126120214687969e-02, 6.999999999999997e-04, 4.221289761777356e+02
242, 1.131098547757031e-02, 6.999999999999997e-04, 4.218324210533198e+02
243, 1.136076880826094e-02, 6.999999999999997e-04, 4.215300516338442e+02
244, 1.141055213895156e-02, 6.999999999999997e-04, 4.212218783578127e+02
245, 1.146033546964218e-02, 6.999999999999997e-04, 4.209079120125621e+02
246, 1.151011880033280e-02, 6.999999999999997e-04, 4.205881637412076e+02
247, 1.155990213102342e-02, 6.999999999999997e-04, 4.202626450495320e+02
248, 1.160968546171404e-02, 6.999999999999997e-04, 4.199313678128312e+02
249, 1.165946879240467e-02, 6.999999999999997e-04, 4.195943442827216e+02
250, 1.170925212309529e-02, 6.999999999999997e-04, 4.192515870939128e+02
251, 1.175903545378591e-02, 6.999999999999997e-04, 4.189031092709454e+02
252, 1.180881878447653e-02, 6.999999999999997e-04, 4.185489242348914e+02
253, 1.185860211516715e-02, 6.999999999999997e-04, 4.181890458100136e+02
254, 1.190838544585777e-02, 6.999999999999997e-04, 4.178234882303808e+02
255, 1.195816877654840e-02, 6.999999999999997e-04, 4.174522661464311e+02
256, 1.200795210723902e-02, 6.999999999999997e-04, 4.170753946314801e+02
257, 1.205773543792964e-02, 6.999999999999997e-04, 4.166928891881659e+02
258, 1.210751876862026e-02, 6.999999999999997e-04, 4.163047657548262e+02
259, 1.215730209931088e-02, 6.999999999999997e-04, 4.159110407118006e+02
260, 1.220708543000150e-02, 6.999999999999997e-04, 4.155117308876509e+02
261, 1.225686876069213e-02, 6.999999999999997e-04, 4.151068535652942e+02
262, 1.230665209138275e-02, 6.999999999999997e-04, 4.146964264880418e+02
263, 1.235643542207337e-02, 6.999999999999997e-04, 4.142804678655370e+02
264, 1.240621875276399e-02, 6.999999999999997e-04, 4.138589963795866e+02
265, 1.245600208345461e-02, 6.999999999999997e-04, 4.134320311898785e+02
266, 1.250578541414523e-02, 6.999999999999997e-04, 4.129995919395803e+02
267, 1.255556874483586e-02, 6.999999999999997e-04, 4.125616987608121e+02
268, 1.260535207552648e-02, 6.999999999999997e-04, 4.121183722799877e+02
269, 1.265513540621710e-02, 6.999999999999997e-04, 4.116696336230174e+02
270, 1.270491873690772e-02, 6.999999999999997e-04, 4.112155044203691e+02
271, 1.275470206759834e-02, 6.999999999999997e-04, 4.107560068119777e+02
272, 1.280448539828897e-02, 6.999999999999997e-04, 4.102911634520015e+02
273, 1.285426872897959e-02, 6.999999999999997e-04, 4.098209975134170e+02
274, 1.290405205967021e-02, 6.999999999999997e-04, 4.093455326924480e+02
