"PointID","x","y","Density","Momentum_x","Momentum_y","Energy","Pressure","Temperature","Mach","Pressure_Coefficient"
0,-2.500000000000000e-01,0.000000000000000e+00,1.501407381337420e+00,3.737049561564780e-01,2.129891356147677e+02,3.283866189375255e+05,1.253117158418638e+05,2.899323810659156e+02,4.150008536398806e-01,6.901763252606703e-01,
1,-2.498717000000000e-01,7.089119000000000e-04,1.313850835398020e+00,9.646138540769060e+01,2.655527902153542e+02,2.922665240191047e+05,1.047555980749287e+05,2.769713012222745e+02,6.436334114195086e-01,9.870953524484821e-02,
2,-2.494863000000000e-01,1.407945000000000e-03,1.141565359108990e+00,1.839274602051461e+02,2.490613248778992e+02,2.583965582134927e+05,8.656399065178756e+04,2.634147441038702e+02,8.324106036976301e-01,-4.247225529435398e-01,
3,-2.488447000000000e-01,2.096730000000000e-03,1.021672489290604e+00,2.328550739956665e+02,2.072831726304493e+02,2.341116536067522e+05,7.461942582952423e+04,2.537136282068786e+02,9.542453554020447e-01,-7.684067784213617e-01,
4,-2.479475000000000e-01,2.774897000000000e-03,9.488604328246356e-01,2.591625790374006e+02,1.702527680330639e+02,2.192823323339103e+05,6.744625427988535e+04,2.469216046775640e+02,1.035937029731475e+00,-9.748024022838681e-01,
5,-2.467954000000000e-01,3.442047000000000e-03,9.068311938629234e-01,2.740592162744384e+02,1.417370550708913e+02,2.107313020864723e+05,6.329680576669316e+04,2.424705153259004e+02,1.088417265655415e+00,-1.094195617494059e+00,
6,-2.453898000000000e-01,4.097669000000000e-03,8.831592915240324e-01,2.831271213242691e+02,1.200498753045981e+02,2.059227484516948e+05,6.095213863584644e+04,2.397471748268255e+02,1.120225438259866e+00,-1.161659365136534e+00,
7,-2.437320000000000e-01,4.741205000000000e-03,8.704711477594042e-01,2.890848084907108e+02,1.032854836509987e+02,2.033520883893591e+05,5.968867195533674e+04,2.381996547036479e+02,1.138218589296303e+00,-1.198013436964974e+00,
8,-2.418237000000000e-01,5.372028000000000e-03,8.644268492791208e-01,2.933048330296721e+02,9.005128494484586e+01,2.021389192503978e+05,5.907536522789994e+04,2.374005713326990e+02,1.147489533768011e+00,-1.215660278916601e+00,
9,-2.396670000000000e-01,5.989479000000000e-03,8.621978097657350e-01,2.965075441055581e+02,7.937064171993913e+01,2.017111826257429e+05,5.882952946046281e+04,2.370238519360941e+02,1.151855875335426e+00,-1.222733778586417e+00,
10,-2.372639000000000e-01,6.592837000000000e-03,8.622740357980235e-01,2.991153558996793e+02,7.058509267005262e+01,2.017653297561533e+05,5.879842100755596e+04,2.368775740441086e+02,1.153550609842829e+00,-1.223628870597068e+00,
11,-2.346171000000000e-01,7.181354000000000e-03,8.653662804606800e-01,3.014049487684025e+02,6.324198702664495e+01,2.024416103655242e+05,5.905656378100962e+04,2.370673785694939e+02,1.151351598965678e+00,-1.216201258082315e+00,
12,-2.317292000000000e-01,7.754243000000000e-03,8.757629729909857e-01,3.036289918507990e+02,5.702324791510351e+01,2.045973079441403e+05,6.004256538710988e+04,2.381640749975599e+02,1.138631852172926e+00,-1.187830764610604e+00,
13,-2.286031000000000e-01,8.310701000000000e-03,9.003404047179926e-01,3.059719734519749e+02,5.168917611256613e+01,2.096118167984360e+05,6.245490150199954e+04,2.409702229560957e+02,1.105964885682157e+00,-1.118419958811072e+00,
14,-2.252422000000000e-01,8.849904000000000e-03,9.416062510092632e-01,3.082375187104242e+02,4.700477543946177e+01,2.179901982133197e+05,6.654629775495504e+04,2.455037657580462e+02,1.052729433222914e+00,-1.000697097137705e+00,
15,-2.216498000000000e-01,9.371024000000000e-03,9.876056264437149e-01,3.104333993341211e+02,4.284759761195295e+01,2.273743774961420e+05,7.106229604401690e+04,2.499535287279064e+02,9.997489830309551e-01,-8.707570451282344e-01,
16,-2.178297000000000e-01,9.873237999999999e-03,1.020067651354094e+00,3.120111597712986e+02,3.905966386842970e+01,2.340231455257910e+05,7.422297122590094e+04,2.527626806096290e+02,9.658265400835557e-01,-7.798140749960704e-01,
17,-2.137857000000000e-01,1.035572000000000e-02,1.034607430153433e+00,3.127146409555281e+02,3.554859941340794e+01,2.369913860606955e+05,7.564839316015312e+04,2.539964851609719e+02,9.507901386964116e-01,-7.388000204246178e-01,
18,-2.095220000000000e-01,1.081769000000000e-02,1.038909619860139e+00,3.128040998856058e+02,3.229781926650696e+01,2.378407130511100e+05,7.609910390183635e+04,2.544517062005471e+02,9.452192028971669e-01,-7.258315971731306e-01,
19,-2.050431000000000e-01,1.125836000000000e-02,1.041993664241845e+00,3.127367201099220e+02,2.931248417816908e+01,2.384351505628072e+05,7.643661727903843e+04,2.548237913083646e+02,9.406562026054862e-01,-7.161202326020336e-01,
20,-2.003534000000000e-01,1.167700000000000e-02,1.048205314269405e+00,3.126208596772337e+02,2.656693163373897e+01,2.396649748826541e+05,7.708386732465746e+04,2.554587191035846e+02,9.328494774107993e-01,-6.974967302870358e-01,
21,-1.954579000000000e-01,1.207291000000000e-02,1.057342667897397e+00,3.124492882818861e+02,2.402869152557265e+01,2.414895282674833e+05,7.802057761107710e+04,2.563285585951170e+02,9.221117305676536e-01,-6.705445094170720e-01,
22,-1.903615000000000e-01,1.244545000000000e-02,1.067261400145449e+00,3.122260447331455e+02,2.167186134476804e+01,2.434741484370144e+05,7.903337429403707e+04,2.572428509181680e+02,9.107687463405142e-01,-6.414030338816201e-01,
23,-1.850695000000000e-01,1.279402000000000e-02,1.076327757865892e+00,3.119346245385835e+02,1.947369241680647e+01,2.452845391095197e+05,7.996275822314760e+04,2.580755239769231e+02,9.003846171319783e-01,-6.146616162912084e-01,
24,-1.795873000000000e-01,1.311810000000000e-02,1.084284314476937e+00,3.115662306827803e+02,1.741542065658753e+01,2.468665357006851e+05,8.078512361248799e+04,2.588164111652253e+02,8.911000661286845e-01,-5.909994723704501e-01,
25,-1.739206000000000e-01,1.341722000000000e-02,1.091630197586261e+00,3.111377128985148e+02,1.548313980495121e+01,2.483223958115753e+05,8.154887048526458e+04,2.595051621181861e+02,8.824273503796594e-01,-5.690239750344500e-01,
26,-1.680752000000000e-01,1.369099000000000e-02,1.098808935089677e+00,3.106641700136239e+02,1.366557764263471e+01,2.497435722494214e+05,8.229673937958933e+04,2.601740866347115e+02,8.739659464964884e-01,-5.475053391084360e-01,
27,-1.620571000000000e-01,1.393909000000000e-02,1.106000309374053e+00,3.101424410928262e+02,1.195221447895954e+01,2.511664074188635e+05,8.304682295816192e+04,2.608383032552014e+02,8.655263766282899e-01,-5.259229794677684e-01,
28,-1.558725000000000e-01,1.416128000000000e-02,1.113165169475770e+00,3.095116522866551e+02,1.033340572348803e+01,2.525779154196459e+05,8.380025654099205e+04,2.615106206295716e+02,8.569439412205462e-01,-5.042442292397725e-01,
29,-1.495276000000000e-01,1.435740000000000e-02,1.120422937307390e+00,3.088761884770924e+02,8.950099282607457e+00,2.540112851668108e+05,8.456012825385004e+04,2.621725595765380e+02,8.484550637034178e-01,-4.823802329383470e-01,
30,-1.430433063574265e-01,1.453303631083578e-02,1.127259255177330e+00,3.083275642522918e+02,7.790094669912565e+00,2.553677790016439e+05,8.526961478423035e+04,2.627689729006406e+02,8.407712471553552e-01,-4.619659832516431e-01,
31,-1.364100348632486e-01,1.468887199378467e-02,1.133048193945052e+00,3.077481541792653e+02,6.652756972064850e+00,2.565087283517033e+05,8.587813295214494e+04,2.632920847940150e+02,8.340025981547134e-01,-4.444569238308177e-01,
32,-1.296364040383640e-01,1.482286741533893e-02,1.138367399083602e+00,3.071639319203867e+02,5.566165855437632e+00,2.575543522366431e+05,8.643998295761514e+04,2.637763260525598e+02,8.277113938518151e-01,-4.282906601922445e-01,
33,-1.227290881205212e-01,1.493679576701612e-02,1.143523519648563e+00,3.065784111229286e+02,4.540343412341036e+00,2.585676353818206e+05,8.698472738469574e+04,2.642417868257450e+02,8.216391383091636e-01,-4.126165800319025e-01,
34,-1.156952170825545e-01,1.502934707422975e-02,1.148525295946444e+00,3.059856761221306e+02,3.578762206202896e+00,2.595499051186302e+05,8.751382723939254e+04,2.646913229512756e+02,8.157520238598400e-01,-3.973926454250122e-01,
35,-1.085417400330495e-01,1.510273557128919e-02,1.153372401202789e+00,3.054367143685346e+02,2.705922202600817e+00,2.605048996129095e+05,8.802350639822576e+04,2.651140240585549e+02,8.101961102748151e-01,-3.827275078036494e-01,
36,-1.012761518239259e-01,1.515711638083539e-02,1.157829924747890e+00,3.048669999561969e+02,1.837565037978352e+00,2.613791448822831e+05,8.849623179387709e+04,2.655116617921510e+02,8.049511288539897e-01,-3.691256509017302e-01,
37,-9.390615852734123e-02,1.519096104090098e-02,1.162145970247912e+00,3.042739879606916e+02,9.972034857138161e-01,2.622234840908525e+05,8.895617069627524e+04,2.659004002763011e+02,7.998061900617324e-01,-3.558917032619471e-01,
38,-8.643913321250840e-02,1.520574595714187e-02,1.166472183814597e+00,3.036990891480911e+02,2.310765722248828e-01,2.630721706923809e+05,8.941482805798350e+04,2.662801243361146e+02,7.947629826332638e-01,-3.426946297424001e-01,
39,-7.888270189178322e-02,1.520240918436949e-02,1.170627825504281e+00,3.031333028780149e+02,-4.921311764555187e-01,2.638871554790319e+05,8.985558706678904e+04,2.666427840589020e+02,7.899293338280250e-01,-3.300125504186426e-01,
40,-7.124470892502498e-02,1.518109579020086e-02,1.174572963004696e+00,3.025528936326076e+02,-1.198303322368571e+00,2.646583888847902e+05,9.027646699790044e+04,2.669919374691180e+02,7.852599033461974e-01,-3.179024572259991e-01,
41,-6.353315664792411e-02,1.514162380375595e-02,1.178449393360634e+00,3.019692345183825e+02,-1.865554460045901e+00,2.654158814405357e+05,9.069027029337409e+04,2.673334796731013e+02,7.806765806342237e-01,-3.059959820030629e-01,
42,-5.575582647652440e-02,1.508541649626441e-02,1.182265718837703e+00,3.013910307618235e+02,-2.488740219503364e+00,2.661620297563747e+05,9.109724337643830e+04,2.676663215658978e+02,7.761951877151093e-01,-2.942860343469926e-01,
43,-4.792072944820051e-02,1.501271902388656e-02,1.185954755959168e+00,3.008082469630532e+02,-3.081385865334742e+00,2.668821810577420e+05,9.149173435267413e+04,2.679892241974005e+02,7.718333054525168e-01,-2.829352377593350e-01,
44,-4.003598560051691e-02,1.492439690393619e-02,1.189553641048563e+00,3.002355877088636e+02,-3.634761502586391e+00,2.675850160725045e+05,9.187628398470777e+04,2.683014273023972e+02,7.676022671535494e-01,-2.718704861832102e-01,
45,-3.210972710992586e-02,1.482131914007888e-02,1.193030960615638e+00,2.996612891866718e+02,-4.167180949889796e+00,2.682631447602118e+05,9.224877461085306e+04,2.686040049513870e+02,7.634884204712681e-01,-2.611527116766098e-01,
46,-2.415008092433897e-02,1.470349555503891e-02,1.196420477985116e+00,2.990718215730176e+02,-4.680850114396017e+00,2.689225524503615e+05,9.261343196056088e+04,2.689018143028615e+02,7.594265152617139e-01,-2.506603261720720e-01,
47,-1.616523749002454e-02,1.457177375569133e-02,1.199796538030618e+00,2.984944743673609e+02,-5.145649722251557e+00,2.695804894992984e+05,9.297543865567818e+04,2.691932859368749e+02,7.554380896313206e-01,-2.402442086759134e-01,
48,-8.163437247384907e-03,1.442791849704189e-02,1.203067565958934e+00,2.979379723340022e+02,-5.576426070972778e+00,2.702186179264682e+05,9.332549457560678e+04,2.694721415020745e+02,7.516103249767654e-01,-2.301719540978024e-01,
49,-1.528930761004081e-04,1.427209315057859e-02,1.206164485686724e+00,2.973627539831872e+02,-6.013951457001886e+00,2.708198146574527e+05,9.365981448707235e+04,2.697431026043548e+02,7.478791696433373e-01,-2.205524759884202e-01,
50,7.858061951900986e-03,1.410390206334568e-02,1.209250039673416e+00,2.967735213135589e+02,-6.427415438107433e+00,2.714180926149833e+05,9.399360351593180e+04,2.700136886357790e+02,7.441418963126334e-01,-2.109482731092384e-01,
51,1.586124784644679e-02,1.392526710260338e-02,1.212364683073321e+00,2.962171536658703e+02,-6.780848213931559e+00,2.720250348050479e+05,9.432747690092039e+04,2.702766538653136e+02,7.404985271046300e-01,-2.013416430281168e-01,
52,2.384850226916103e-02,1.373787514838671e-02,1.215299177574300e+00,2.956715108540507e+02,-7.128155744478684e+00,2.725957803234551e+05,9.464309907416922e+04,2.705262054819068e+02,7.370306631307468e-01,-1.922601600464624e-01,
53,3.181145781794112e-02,1.354074992031561e-02,1.218093484397863e+00,2.950954307117173e+02,-7.492803898092780e+00,2.731357446246603e+05,9.494711101185820e+04,2.707726073284931e+02,7.335964672160381e-01,-1.835127415431192e-01,
54,3.974189011844972e-02,1.333432383001685e-02,1.220969452091124e+00,2.945237710964843e+02,-7.812253392586018e+00,2.736932723447787e+05,9.525823361292361e+04,2.710199856617619e+02,7.301387529624401e-01,-1.745607259806512e-01,
55,4.763179750292019e-02,1.312112243955362e-02,1.223813290187441e+00,2.939862419862122e+02,-8.088259149309424e+00,2.742467784885967e+05,9.556365809821636e+04,2.712571489955298e+02,7.268140710166171e-01,-1.657726638593632e-01,
56,5.547301298411919e-02,1.290154361764851e-02,1.226450199982110e+00,2.934383456888854e+02,-8.383315253266806e+00,2.747570075385886e+05,9.584983246734101e+04,2.714844954470507e+02,7.236180198363706e-01,-1.575384905874420e-01,
57,6.325732410493309e-02,1.267472103863760e-02,1.229054322590368e+00,2.928686285864005e+02,-8.679608139883817e+00,2.752592861524548e+05,9.613405215563999e+04,2.717125900603288e+02,7.204026702548662e-01,-1.493605598807062e-01,
58,7.097679292630335e-02,1.244206533661507e-02,1.231742970335155e+00,2.923176398670104e+02,-8.927463764552277e+00,2.757806516950239e+05,9.642473637358195e+04,2.719392904086029e+02,7.171981658664497e-01,-1.409966234972056e-01,
59,7.862357195194246e-02,1.220544488787568e-02,1.234329287854003e+00,2.917839720871029e+02,-9.160892868396948e+00,2.762822322134742e+05,9.670429105382499e+04,2.721562446485045e+02,7.141229084773388e-01,-1.329529203411939e-01,
60,8.618969901364208e-02,1.196445456766708e-02,1.236774562692197e+00,2.912316840197620e+02,-9.414401262500341e+00,2.767536003201308e+05,9.697144805200271e+04,2.723685311613359e+02,7.111057448068995e-01,-1.252659390768321e-01,
61,9.366730241685395e-02,1.171914217818950e-02,1.239258129633776e+00,2.906716258981277e+02,-9.651722356154959e+00,2.772326908975515e+05,9.724246591328603e+04,2.725823798491400e+02,7.080583345765651e-01,-1.174678681440008e-01,
62,1.010487572071340e-01,1.147106613349782e-02,1.241766251575029e+00,2.901275400763053e+02,-9.858264963620737e+00,2.777182085493053e+05,9.751449147245609e+04,2.727927977823525e+02,7.050517585859638e-01,-1.096408024446896e-01,
63,1.083265704484112e-01,1.122104782617129e-02,1.244170282160272e+00,2.895829926664613e+02,-1.006748878177955e+01,2.781823548029633e+05,9.777645109900383e+04,2.729971030704660e+02,7.021247482497277e-01,-1.021033665735470e-01,
64,1.154931647219541e-01,1.096890915208400e-02,1.246526000882406e+00,2.890254871221815e+02,-1.028238059435010e+01,2.786358976159227e+05,9.803442885675534e+04,2.732001122602301e+02,6.992086641273848e-01,-9.468050210065478e-02,
65,1.225410318862506e-01,1.071535807261441e-02,1.248918420491903e+00,2.884665407830016e+02,-1.048055350213728e+01,2.790972495507961e+05,9.829570849798938e+04,2.734035053408759e+02,6.962794254428452e-01,-8.716263163263478e-02,
66,1.294630285763265e-01,1.046136560099186e-02,1.251294827523873e+00,2.879090463386914e+02,-1.066779487692183e+01,2.795556346309450e+05,9.855512943287629e+04,2.736044618994164e+02,6.933775387111881e-01,-7.969824222992032e-02,
67,1.362521078894904e-01,1.020733685027642e-02,1.253624185896313e+00,2.873437988633419e+02,-1.085609655167975e+01,2.800040121118381e+05,9.881036068914506e+04,2.738033229368097e+02,6.904983122470685e-01,-7.235440359421161e-02,
68,1.429012079048556e-01,9.953666550285848e-03,1.255955290301766e+00,2.867728147954869e+02,-1.103925422149848e+01,2.804526566235208e+05,9.906586450892275e+04,2.740018192911235e+02,6.876166679359093e-01,-6.500272241422864e-02,
69,1.494033453112080e-01,9.701091078807719e-03,1.258290777659683e+00,2.861939817144208e+02,-1.121786245767286e+01,2.809019899632116e+05,9.932202353870471e+04,2.742004339199473e+02,6.847255882977558e-01,-5.763218869786654e-02,
70,1.557521064969572e-01,9.449962182989741e-03,1.260626631482313e+00,2.856042235745371e+02,-1.139230049882661e+01,2.813509750758479e+05,9.957865259057033e+04,2.743995280536772e+02,6.818195842432613e-01,-5.024813090773687e-02,
71,1.619406621059115e-01,9.201004326747225e-03,1.262976309087431e+00,2.850090465087917e+02,-1.155748303640565e+01,2.818027722568949e+05,9.983666579475108e+04,2.745986872350319e+02,6.789046387956509e-01,-4.282424652505660e-02,
72,1.679627921307202e-01,8.954812206107166e-03,1.265321353796510e+00,2.844048041459207e+02,-1.172152662724581e+01,2.822533163546880e+05,1.000945424684622e+05,2.747977380738721e+02,6.759830846327064e-01,-3.540429057086365e-02,
73,1.738122802473649e-01,8.711733548155087e-03,1.267674230617639e+00,2.837823895524276e+02,-1.188755916352460e+01,2.827046440685198e+05,1.003540200277359e+05,2.749987403358037e+02,6.730245554041567e-01,-2.793827189920319e-02,
74,1.794831009978204e-01,8.472236264103495e-03,1.270070467007764e+00,2.831448853724462e+02,-1.204354859692435e+01,2.831643418403019e+05,1.006182379930622e+05,2.752025682417280e+02,6.700156592208947e-01,-2.033585622967283e-02,
75,1.849694495872196e-01,8.237171143733747e-03,1.272495240414925e+00,2.825002309542297e+02,-1.218844647268081e+01,2.836298377919227e+05,1.008852965664293e+05,2.754072068067264e+02,6.669858318849030e-01,-1.265170696926736e-02,
76,1.902656082569313e-01,8.007036512929680e-03,1.274912634464713e+00,2.818363980020575e+02,-1.233914947277362e+01,2.840929210275436e+05,1.011525466891690e+05,2.756131841586345e+02,6.639269038777564e-01,-4.962046206451677e-03,
77,1.953661315752982e-01,7.781998715729649e-03,1.277374365341925e+00,2.811462195579394e+02,-1.248836271325510e+01,2.845639413165901e+05,1.014252719450141e+05,2.758236978945162e+02,6.607909254200136e-01,2.885152056365255e-03,
78,2.002657191421101e-01,7.562842204447163e-03,1.279908683770784e+00,2.804394841815528e+02,-1.262104166348058e+01,2.850493942897941e+05,1.017055049914944e+05,2.760381239298214e+02,6.575863433066902e-01,1.094837402937061e-02,
79,2.049594650939431e-01,7.350264302237518e-03,1.282464390281178e+00,2.797162139938141e+02,-1.274847343720221e+01,2.855386411823086e+05,1.019884216265489e+05,2.762543643344613e+02,6.543439991502593e-01,1.908881162926111e-02,
80,2.094423373009859e-01,7.144613936967091e-03,1.285041673770966e+00,2.789628565641939e+02,-1.288090379783560e+01,2.860309202654419e+05,1.022748328624748e+05,2.764745492149776e+02,6.510312673238681e-01,2.732980033434080e-02,
81,2.137098994516206e-01,6.946225218489317e-03,1.287700537343305e+00,2.781785695688061e+02,-1.300379941710961e+01,2.865387203522069e+05,1.025703871072794e+05,2.767009880015259e+02,6.476124819052453e-01,3.583386333067483e-02,
82,2.177576612032230e-01,6.755910115575425e-03,1.290434517703918e+00,2.773712263338897e+02,-1.311105338899295e+01,2.870611901638131e+05,1.028739747636643e+05,2.769319991613289e+02,6.441118454342771e-01,4.456907387219302e-02,
83,2.215814034168884e-01,6.574156744952591e-03,1.293199502230858e+00,2.765334234731634e+02,-1.321700254431454e+01,2.875887241415540e+05,1.031818780024529e+05,2.771669811392918e+02,6.405375844624123e-01,5.342845784472060e-02,
84,2.251772917309910e-01,6.401293723626174e-03,1.296030840722215e+00,2.756578588133262e+02,-1.331972551827948e+01,2.881283012979627e+05,1.034977930844541e+05,2.774082324895148e+02,6.368535182337924e-01,6.251836876989457e-02,
85,2.285415131975085e-01,6.237851577222170e-03,1.298956569814263e+00,2.747458899872748e+02,-1.340992514504032e+01,2.886858974094703e+05,1.038242188566228e+05,2.776563649805161e+02,6.330488473169094e-01,7.191070665353901e-02,
86,2.316707631841742e-01,6.084364753446876e-03,1.301952141777150e+00,2.737952393421072e+02,-1.349046113081246e+01,2.892562916914910e+05,1.041589547872399e+05,2.779106468239715e+02,6.291331878754185e-01,8.154215499557715e-02,
87,2.345616221439305e-01,5.941235563362356e-03,1.305011627508936e+00,2.728037538939729e+02,-1.356217056459197e+01,2.898381680813174e+05,1.045015268678564e+05,2.781709969148121e+02,6.251062331239772e-01,9.139907502145968e-02,
